E4_Bvp, 1695650258.70163, 1695650258.687, -0.0146257877349854
E4_Bvp, 1695650258.87351, 1695650258.865, -0.00850892066955566
E4_Bvp, 1695650259.04539, 1695650259.045, -0.000391721725463867
E4_Bvp, 1695650259.21727, 1695650259.202, -0.0152750015258789
E4_Bvp, 1695650259.38916, 1695650259.382, -0.00715780258178711
E4_Bvp, 1695650259.56104, 1695650259.562, 0.000959396362304688
E4_Bvp, 1695650259.73292, 1695650259.72, -0.0129237174987793
E4_Bvp, 1695650259.90481, 1695650259.9, -0.0048065185546875
E4_Bvp, 1695650260.07669, 1695650260.08, 0.0033104419708252
E4_Bvp, 1695650260.24857, 1695650260.237, -0.0115725994110107
E4_Bvp, 1695650260.42046, 1695650260.44, 0.0195446014404297
E4_Bvp, 1695650260.59234, 1695650260.576, -0.016338586807251
E4_Bvp, 1695650260.76422, 1695650260.755, -0.00922131538391113
E4_Bvp, 1695650260.9361, 1695650260.936, -0.000104188919067383
E4_Bvp, 1695650261.10799, 1695650261.092, -0.0159873962402344
E4_Bvp, 1695650261.27987, 1695650261.272, -0.00787019729614258
E4_Bvp, 1695650261.45175, 1695650261.452, 0.000246524810791016
E4_Bvp, 1695650261.62364, 1695650261.61, -0.0136363506317139
E4_Bvp, 1695650261.79552, 1695650261.79, -0.00551915168762207
E4_Bvp, 1695650261.9674, 1695650261.97, 0.00259780883789063
E4_Bvp, 1695650262.13929, 1695650262.127, -0.0122849941253662
E4_Bvp, 1695650262.31117, 1695650262.308, -0.00316810607910156
E4_Bvp, 1695650262.48305, 1695650262.465, -0.0180511474609375
E4_Bvp, 1695650262.65493, 1695650262.645, -0.0099339485168457
E4_Bvp, 1695650262.82682, 1695650262.826, -0.000817060470581055
E4_Bvp, 1695650262.9987, 1695650262.982, -0.0166997909545898
E4_Bvp, 1695650263.17058, 1695650263.162, -0.00858283042907715
E4_Bvp, 1695650263.34247, 1695650263.342, -0.000465869903564453
E4_Bvp, 1695650263.51435, 1695650263.5, -0.0143487453460693
E4_Bvp, 1695650263.68623, 1695650263.68, -0.00623178482055664
E4_Bvp, 1695650263.85811, 1695650263.86, 0.00188517570495605
E4_Bvp, 1695650264.03, 1695650264.017, -0.0129976272583008
E4_Bvp, 1695650264.20188, 1695650264.197, -0.00488066673278809
E4_Bvp, 1695650264.37376, 1695650264.355, -0.018763542175293
E4_Bvp, 1695650264.54565, 1695650264.535, -0.0106465816497803
E4_Bvp, 1695650264.71753, 1695650264.737, 0.0194704532623291
E4_Bvp, 1695650264.88941, 1695650264.872, -0.0174124240875244
E4_Bvp, 1695650265.0613, 1695650265.075, 0.0137045383453369
E4_Bvp, 1695650265.23318, 1695650265.256, 0.0228216648101807
E4_Bvp, 1695650265.40506, 1695650265.39, -0.0150613784790039
E4_Bvp, 1695650265.57694, 1695650265.596, 0.0190556049346924
E4_Bvp, 1695650265.74883, 1695650265.75, 0.00117278099060059
E4_Bvp, 1695650265.92071, 1695650265.93, 0.00928974151611328
E4_Bvp, 1695650266.09259, 1695650266.088, -0.0045931339263916
E4_Bvp, 1695650266.26448, 1695650266.245, -0.0194761753082275
E4_Bvp, 1695650266.43636, 1695650266.425, -0.0113592147827148
E4_Bvp, 1695650266.60824, 1695650266.605, -0.00324201583862305
E4_Bvp, 1695650266.78013, 1695650266.764, -0.0161252021789551
E4_Bvp, 1695650266.95201, 1695650266.943, -0.00900793075561523
E4_Bvp, 1695650267.12389, 1695650267.123, -0.000890970230102539
E4_Bvp, 1695650267.29577, 1695650267.28, -0.0157740116119385
E4_Bvp, 1695650267.46766, 1695650267.46, -0.00765681266784668
E4_Bvp, 1695650267.63954, 1695650267.64, 0.000460147857666016
E4_Bvp, 1695650267.81142, 1695650267.797, -0.0144228935241699
E4_Bvp, 1695650267.98331, 1695650267.977, -0.00630569458007813
E4_Bvp, 1695650268.15519, 1695650268.135, -0.0201888084411621
E4_Bvp, 1695650268.32707, 1695650268.317, -0.0100717544555664
E4_Bvp, 1695650268.49895, 1695650268.495, -0.00395488739013672
E4_Bvp, 1695650268.67084, 1695650268.653, -0.0178375244140625
E4_Bvp, 1695650268.84272, 1695650268.832, -0.0107204914093018
E4_Bvp, 1695650269.0146, 1695650269.013, -0.00160360336303711
E4_Bvp, 1695650269.18649, 1695650269.17, -0.0164864063262939
E4_Bvp, 1695650269.35837, 1695650269.35, -0.00836944580078125
E4_Bvp, 1695650269.53025, 1695650269.53, -0.000252485275268555
E4_Bvp, 1695650269.70214, 1695650269.687, -0.0151352882385254
E4_Bvp, 1695650269.87402, 1695650269.867, -0.0070183277130127
E4_Bvp, 1695650270.0459, 1695650270.047, 0.0010986328125
E4_Bvp, 1695650270.21778, 1695650270.205, -0.0127842426300049
E4_Bvp, 1695650270.38967, 1695650270.385, -0.00466728210449219
E4_Bvp, 1695650270.56155, 1695650270.543, -0.0185501575469971
E4_Bvp, 1695650270.73343, 1695650270.722, -0.0114333629608154
E4_Bvp, 1695650270.90532, 1695650270.925, 0.019683837890625
E4_Bvp, 1695650271.0772, 1695650271.06, -0.0171990394592285
E4_Bvp, 1695650271.24908, 1695650271.24, -0.00908207893371582
E4_Bvp, 1695650271.42096, 1695650271.42, -0.000964879989624023
E4_Bvp, 1695650271.59285, 1695650271.577, -0.0158481597900391
E4_Bvp, 1695650271.76473, 1695650271.758, -0.00673103332519531
E4_Bvp, 1695650271.93661, 1695650271.937, 0.000386238098144531
E4_Bvp, 1695650272.1085, 1695650272.095, -0.0134968757629395
E4_Bvp, 1695650272.28038, 1695650272.275, -0.00537967681884766
E4_Bvp, 1695650272.45226, 1695650272.432, -0.0202627182006836
E4_Bvp, 1695650272.62415, 1695650272.613, -0.0111458301544189
E4_Bvp, 1695650272.79603, 1695650272.792, -0.0040285587310791
E4_Bvp, 1695650272.96791, 1695650272.951, -0.0169117450714111
E4_Bvp, 1695650273.13979, 1695650273.131, -0.00879454612731934
E4_Bvp, 1695650273.31168, 1695650273.31, -0.00167751312255859
E4_Bvp, 1695650273.48356, 1695650273.467, -0.0165605545043945
E4_Bvp, 1695650273.65544, 1695650273.647, -0.00844335556030273
E4_Bvp, 1695650273.82733, 1695650273.827, -0.000326633453369141
E4_Bvp, 1695650273.99921, 1695650273.985, -0.014209508895874
E4_Bvp, 1695650274.17109, 1695650274.165, -0.00609230995178223
E4_Bvp, 1695650274.34298, 1695650274.323, -0.0199754238128662
E4_Bvp, 1695650274.51486, 1695650274.502, -0.0128581523895264
E4_Bvp, 1695650274.68674, 1695650274.683, -0.00374102592468262
E4_Bvp, 1695650274.85862, 1695650274.84, -0.0186243057250977
E4_Bvp, 1695650275.03051, 1695650275.02, -0.0105071067810059
E4_Bvp, 1695650275.20239, 1695650275.201, -0.00139021873474121
E4_Bvp, 1695650275.37427, 1695650275.358, -0.016273021697998
E4_Bvp, 1695650275.54616, 1695650275.537, -0.0091559886932373
E4_Bvp, 1695650275.71804, 1695650275.718, -3.91006469726563E-05
E4_Bvp, 1695650275.88992, 1695650275.875, -0.0149219036102295
E4_Bvp, 1695650276.06181, 1695650276.078, 0.0161950588226318
E4_Bvp, 1695650276.23369, 1695650276.235, 0.0013120174407959
E4_Bvp, 1695650276.40557, 1695650276.393, -0.012570858001709
E4_Bvp, 1695650276.57745, 1695650276.573, -0.00445389747619629
E4_Bvp, 1695650276.74934, 1695650276.73, -0.0193367004394531
E4_Bvp, 1695650276.92122, 1695650276.91, -0.0112197399139404
E4_Bvp, 1695650277.0931, 1695650277.09, -0.00310277938842773
E4_Bvp, 1695650277.26499, 1695650277.248, -0.0169856548309326
E4_Bvp, 1695650277.43687, 1695650277.427, -0.00986862182617188
E4_Bvp, 1695650277.60875, 1695650277.607, -0.00175142288208008
E4_Bvp, 1695650277.78063, 1695650277.765, -0.015634298324585
E4_Bvp, 1695650277.95252, 1695650277.945, -0.00751757621765137
E4_Bvp, 1695650278.1244, 1695650278.125, 0.00059962272644043
E4_Bvp, 1695650278.29628, 1695650278.283, -0.0132834911346436
E4_Bvp, 1695650278.46817, 1695650278.463, -0.00516629219055176
E4_Bvp, 1695650278.64005, 1695650278.62, -0.0200493335723877
E4_Bvp, 1695650278.81193, 1695650278.8, -0.011932373046875
E4_Bvp, 1695650278.98382, 1695650278.98, -0.0038151741027832
E4_Bvp, 1695650279.1557, 1695650279.139, -0.0166983604431152
E4_Bvp, 1695650279.32758, 1695650279.341, 0.0134189128875732
E4_Bvp, 1695650279.49946, 1695650279.498, -0.0014641284942627
E4_Bvp, 1695650279.67135, 1695650279.655, -0.0163471698760986
E4_Bvp, 1695650279.84323, 1695650279.835, -0.00822997093200684
E4_Bvp, 1695650280.01511, 1695650280.015, -0.000113010406494141
E4_Bvp, 1695650280.187, 1695650280.173, -0.013995885848999
E4_Bvp, 1695650280.35888, 1695650280.353, -0.00587892532348633
E4_Bvp, 1695650280.53076, 1695650280.51, -0.0207619667053223
E4_Bvp, 1695650280.70264, 1695650280.69, -0.0126447677612305
E4_Bvp, 1695650280.87453, 1695650280.87, -0.00452780723571777
E4_Bvp, 1695650281.04641, 1695650281.028, -0.0184106826782227
E4_Bvp, 1695650281.21829, 1695650281.208, -0.01029372215271
E4_Bvp, 1695650281.39018, 1695650281.388, -0.00217676162719727
E4_Bvp, 1695650281.56206, 1695650281.545, -0.0170595645904541
E4_Bvp, 1695650281.73394, 1695650281.725, -0.00894260406494141
E4_Bvp, 1695650281.90583, 1695650281.905, -0.000825643539428711
E4_Bvp, 1695650282.07771, 1695650282.063, -0.0147085189819336
E4_Bvp, 1695650282.24959, 1695650282.243, -0.0065915584564209
E4_Bvp, 1695650282.42147, 1695650282.4, -0.0214743614196777
E4_Bvp, 1695650282.59336, 1695650282.581, -0.012357234954834
E4_Bvp, 1695650282.76524, 1695650282.76, -0.00524044036865234
E4_Bvp, 1695650282.93712, 1695650282.918, -0.0191233158111572
E4_Bvp, 1695650283.10901, 1695650283.098, -0.0110063552856445
E4_Bvp, 1695650283.28089, 1695650283.278, -0.00288915634155273
E4_Bvp, 1695650283.45277, 1695650283.435, -0.0177721977233887
E4_Bvp, 1695650283.62466, 1695650283.615, -0.00965523719787598
E4_Bvp, 1695650283.79654, 1695650283.795, -0.00153803825378418
E4_Bvp, 1695650283.96842, 1695650283.953, -0.0154209136962891
E4_Bvp, 1695650284.1403, 1695650284.133, -0.00730419158935547
E4_Bvp, 1695650284.31219, 1695650284.29, -0.0221869945526123
E4_Bvp, 1695650284.48407, 1695650284.47, -0.0140700340270996
E4_Bvp, 1695650284.65595, 1695650284.65, -0.00595283508300781
E4_Bvp, 1695650284.82784, 1695650284.808, -0.0198357105255127
E4_Bvp, 1695650284.99972, 1695650284.988, -0.0117189884185791
E4_Bvp, 1695650285.1716, 1695650285.168, -0.0036017894744873
E4_Bvp, 1695650285.34348, 1695650285.348, 0.00451517105102539
E4_Bvp, 1695650285.51537, 1695650285.506, -0.00936770439147949
E4_Bvp, 1695650285.68725, 1695650285.686, -0.0012505054473877
E4_Bvp, 1695650285.85913, 1695650285.843, -0.0161337852478027
E4_Bvp, 1695650286.03102, 1695650286.023, -0.00801658630371094
E4_Bvp, 1695650286.2029, 1695650286.18, -0.0228996276855469
E4_Bvp, 1695650286.37478, 1695650286.36, -0.0147826671600342
E4_Bvp, 1695650286.54667, 1695650286.54, -0.00666546821594238
E4_Bvp, 1695650286.71855, 1695650286.698, -0.0205485820770264
E4_Bvp, 1695650286.89043, 1695650286.878, -0.0124313831329346
E4_Bvp, 1695650287.06231, 1695650287.058, -0.00431418418884277
E4_Bvp, 1695650287.2342, 1695650287.215, -0.0191974639892578
E4_Bvp, 1695650287.40608, 1695650287.395, -0.011080265045166
E4_Bvp, 1695650287.57796, 1695650287.576, -0.00196337699890137
E4_Bvp, 1695650287.74985, 1695650287.733, -0.0168461799621582
E4_Bvp, 1695650287.92173, 1695650287.913, -0.00872898101806641
E4_Bvp, 1695650288.09361, 1695650288.071, -0.0226120948791504
E4_Bvp, 1695650288.2655, 1695650288.25, -0.0154950618743896
E4_Bvp, 1695650288.43738, 1695650288.43, -0.00737810134887695
E4_Bvp, 1695650288.60926, 1695650288.588, -0.0212609767913818
E4_Bvp, 1695650288.78114, 1695650288.768, -0.0131440162658691
E4_Bvp, 1695650288.95303, 1695650288.948, -0.00502705574035645
E4_Bvp, 1695650289.12491, 1695650289.105, -0.0199098587036133
E4_Bvp, 1695650289.29679, 1695650289.285, -0.0117926597595215
E4_Bvp, 1695650289.46868, 1695650289.465, -0.00367593765258789
E4_Bvp, 1695650289.64056, 1695650289.623, -0.0175588130950928
E4_Bvp, 1695650289.81244, 1695650289.803, -0.00944185256958008
E4_Bvp, 1695650289.98432, 1695650289.983, -0.00132465362548828
E4_Bvp, 1695650290.15621, 1695650290.14, -0.0162074565887451
E4_Bvp, 1695650290.32809, 1695650290.32, -0.00809073448181152
E4_Bvp, 1695650290.49997, 1695650290.478, -0.0219736099243164
E4_Bvp, 1695650290.67186, 1695650290.658, -0.0138566493988037
E4_Bvp, 1695650290.84374, 1695650290.838, -0.00573945045471191
E4_Bvp, 1695650291.01562, 1695650290.995, -0.0206224918365479
E4_Bvp, 1695650291.18751, 1695650291.175, -0.0125055313110352
E4_Bvp, 1695650291.35939, 1695650291.355, -0.00438833236694336
E4_Bvp, 1695650291.53127, 1695650291.514, -0.0172715187072754
E4_Bvp, 1695650291.70315, 1695650291.693, -0.0101542472839355
E4_Bvp, 1695650291.87504, 1695650291.874, -0.0010371208190918
E4_Bvp, 1695650292.04692, 1695650292.03, -0.0169203281402588
E4_Bvp, 1695650292.2188, 1695650292.21, -0.00880312919616699
E4_Bvp, 1695650292.39069, 1695650292.368, -0.0226860046386719
E4_Bvp, 1695650292.56257, 1695650292.548, -0.0145690441131592
E4_Bvp, 1695650292.73445, 1695650292.728, -0.00645208358764648
E4_Bvp, 1695650292.90634, 1695650292.885, -0.0213351249694824
E4_Bvp, 1695650293.07822, 1695650293.065, -0.0132179260253906
E4_Bvp, 1695650293.2501, 1695650293.268, 0.0178990364074707
E4_Bvp, 1695650293.42198, 1695650293.403, -0.0189838409423828
E4_Bvp, 1695650293.59387, 1695650293.583, -0.0108668804168701
E4_Bvp, 1695650293.76575, 1695650293.764, -0.00174999237060547
E4_Bvp, 1695650293.93763, 1695650293.92, -0.0176327228546143
E4_Bvp, 1695650294.10952, 1695650294.1, -0.00951576232910156
E4_Bvp, 1695650294.2814, 1695650294.258, -0.0233988761901855
E4_Bvp, 1695650294.45328, 1695650294.438, -0.0152816772460938
E4_Bvp, 1695650294.62516, 1695650294.618, -0.00716471672058105
E4_Bvp, 1695650294.79705, 1695650294.775, -0.0220475196838379
E4_Bvp, 1695650294.96893, 1695650294.955, -0.0139305591583252
E4_Bvp, 1695650295.14081, 1695650295.135, -0.0058135986328125
E4_Bvp, 1695650295.3127, 1695650295.315, 0.0023036003112793
E4_Bvp, 1695650295.48458, 1695650295.473, -0.0115792751312256
E4_Bvp, 1695650295.65646, 1695650295.653, -0.00346231460571289
E4_Bvp, 1695650295.82835, 1695650295.811, -0.0173451900482178
E4_Bvp, 1695650296.00023, 1695650295.99, -0.0102283954620361
E4_Bvp, 1695650296.17211, 1695650296.148, -0.024111270904541
E4_Bvp, 1695650296.34399, 1695650296.328, -0.0159940719604492
E4_Bvp, 1695650296.51588, 1695650296.508, -0.00787734985351563
E4_Bvp, 1695650296.68776, 1695650296.666, -0.0217602252960205
E4_Bvp, 1695650296.85964, 1695650296.845, -0.0146431922912598
E4_Bvp, 1695650297.03153, 1695650297.025, -0.00652599334716797
E4_Bvp, 1695650297.20341, 1695650297.183, -0.0204088687896729
E4_Bvp, 1695650297.37529, 1695650297.363, -0.0122921466827393
E4_Bvp, 1695650297.54717, 1695650297.543, -0.00417494773864746
E4_Bvp, 1695650297.71906, 1695650297.702, -0.0170581340789795
E4_Bvp, 1695650297.89094, 1695650297.881, -0.00994086265563965
E4_Bvp, 1695650298.06282, 1695650298.062, -0.000823736190795898
E4_Bvp, 1695650298.23471, 1695650298.218, -0.0167069435119629
E4_Bvp, 1695650298.40659, 1695650298.398, -0.00858974456787109
E4_Bvp, 1695650298.57847, 1695650298.555, -0.0234725475311279
E4_Bvp, 1695650298.75036, 1695650298.736, -0.0143556594848633
E4_Bvp, 1695650298.92224, 1695650298.915, -0.00723862648010254
E4_Bvp, 1695650299.09412, 1695650299.073, -0.0211217403411865
E4_Bvp, 1695650299.266, 1695650299.253, -0.0130045413970947
E4_Bvp, 1695650299.43789, 1695650299.433, -0.00488734245300293
E4_Bvp, 1695650299.60977, 1695650299.59, -0.019770622253418
E4_Bvp, 1695650299.78165, 1695650299.77, -0.0116534233093262
E4_Bvp, 1695650299.95354, 1695650299.951, -0.00253653526306152
E4_Bvp, 1695650300.12542, 1695650300.108, -0.0174193382263184
E4_Bvp, 1695650300.2973, 1695650300.288, -0.00930213928222656
E4_Bvp, 1695650300.46919, 1695650300.445, -0.0241854190826416
E4_Bvp, 1695650300.64107, 1695650300.625, -0.0160682201385498
E4_Bvp, 1695650300.81295, 1695650300.805, -0.00795125961303711
E4_Bvp, 1695650300.98483, 1695650300.963, -0.021834135055542
E4_Bvp, 1695650301.15672, 1695650301.143, -0.0137171745300293
E4_Bvp, 1695650301.3286, 1695650301.323, -0.0056002140045166
E4_Bvp, 1695650301.50048, 1695650301.48, -0.0204830169677734
E4_Bvp, 1695650301.67237, 1695650301.661, -0.0113658905029297
E4_Bvp, 1695650301.84425, 1695650301.842, -0.00224900245666504
E4_Bvp, 1695650302.01613, 1695650301.999, -0.0171318054199219
E4_Bvp, 1695650302.18801, 1695650302.178, -0.0100150108337402
E4_Bvp, 1695650302.3599, 1695650302.358, -0.00189781188964844
E4_Bvp, 1695650302.53178, 1695650302.516, -0.0157806873321533
E4_Bvp, 1695650302.70366, 1695650302.718, 0.014336109161377
E4_Bvp, 1695650302.87555, 1695650302.853, -0.0225467681884766
E4_Bvp, 1695650303.04743, 1695650303.033, -0.0144298076629639
E4_Bvp, 1695650303.21931, 1695650303.213, -0.00631260871887207
E4_Bvp, 1695650303.3912, 1695650303.37, -0.021195650100708
E4_Bvp, 1695650303.56308, 1695650303.55, -0.0130786895751953
E4_Bvp, 1695650303.73496, 1695650303.731, -0.00396156311035156
E4_Bvp, 1695650303.90684, 1695650303.89, -0.0168445110321045
E4_Bvp, 1695650304.07873, 1695650304.069, -0.00972747802734375
E4_Bvp, 1695650304.25061, 1695650304.225, -0.0256104469299316
E4_Bvp, 1695650304.42249, 1695650304.405, -0.0174934864044189
E4_Bvp, 1695650304.59438, 1695650304.585, -0.00937628746032715
E4_Bvp, 1695650304.76626, 1695650304.743, -0.023259162902832
E4_Bvp, 1695650304.93814, 1695650304.923, -0.0151422023773193
E4_Bvp, 1695650305.11003, 1695650305.103, -0.00702524185180664
E4_Bvp, 1695650305.28191, 1695650305.261, -0.0209083557128906
E4_Bvp, 1695650305.45379, 1695650305.44, -0.0137910842895508
E4_Bvp, 1695650305.62567, 1695650305.643, 0.0173258781433105
E4_Bvp, 1695650305.79756, 1695650305.778, -0.019556999206543
E4_Bvp, 1695650305.96944, 1695650305.958, -0.0114400386810303
E4_Bvp, 1695650306.14132, 1695650306.139, -0.00232315063476563
E4_Bvp, 1695650306.31321, 1695650306.296, -0.0172059535980225
E4_Bvp, 1695650306.48509, 1695650306.475, -0.0100889205932617
E4_Bvp, 1695650306.65697, 1695650306.633, -0.0239720344543457
E4_Bvp, 1695650306.82885, 1695650306.813, -0.0158548355102539
E4_Bvp, 1695650307.00074, 1695650306.993, -0.00773763656616211
E4_Bvp, 1695650307.17262, 1695650307.15, -0.022620677947998
E4_Bvp, 1695650307.3445, 1695650307.33, -0.0145037174224854
E4_Bvp, 1695650307.51639, 1695650307.51, -0.00638675689697266
E4_Bvp, 1695650307.68827, 1695650307.669, -0.0192697048187256
E4_Bvp, 1695650307.86015, 1695650307.848, -0.0121524333953857
E4_Bvp, 1695650308.03204, 1695650308.05, 0.0179643630981445
E4_Bvp, 1695650308.20392, 1695650308.186, -0.0179183483123779
E4_Bvp, 1695650308.3758, 1695650308.366, -0.00980162620544434
E4_Bvp, 1695650308.54768, 1695650308.546, -0.00168442726135254
E4_Bvp, 1695650308.71957, 1695650308.726, 0.00643277168273926
E4_Bvp, 1695650308.89145, 1695650308.883, -0.00845050811767578
E4_Bvp, 1695650309.06333, 1695650309.041, -0.0223333835601807
E4_Bvp, 1695650309.23522, 1695650309.221, -0.014216423034668
E4_Bvp, 1695650309.4071, 1695650309.401, -0.00609922409057617
E4_Bvp, 1695650309.57898, 1695650309.558, -0.020982027053833
E4_Bvp, 1695650309.75087, 1695650309.738, -0.0128653049468994
E4_Bvp, 1695650309.92275, 1695650309.918, -0.00474810600280762
E4_Bvp, 1695650310.09463, 1695650310.076, -0.0186309814453125
E4_Bvp, 1695650310.26651, 1695650310.256, -0.0105140209197998
E4_Bvp, 1695650310.4384, 1695650310.413, -0.0253968238830566
E4_Bvp, 1695650310.61028, 1695650310.593, -0.017280101776123
E4_Bvp, 1695650310.78216, 1695650310.773, -0.00916290283203125
E4_Bvp, 1695650310.95405, 1695650310.931, -0.0230457782745361
E4_Bvp, 1695650311.12593, 1695650311.111, -0.0149288177490234
E4_Bvp, 1695650311.29781, 1695650311.291, -0.00681185722351074
E4_Bvp, 1695650311.46969, 1695650311.448, -0.0216948986053467
E4_Bvp, 1695650311.64158, 1695650311.628, -0.0135776996612549
E4_Bvp, 1695650311.81346, 1695650311.808, -0.00546050071716309
E4_Bvp, 1695650311.98534, 1695650311.966, -0.0193436145782471
E4_Bvp, 1695650312.15723, 1695650312.146, -0.0112266540527344
E4_Bvp, 1695650312.32911, 1695650312.326, -0.00310969352722168
E4_Bvp, 1695650312.50099, 1695650312.483, -0.0179924964904785
E4_Bvp, 1695650312.67288, 1695650312.663, -0.00987529754638672
E4_Bvp, 1695650312.84476, 1695650312.821, -0.0237584114074707
E4_Bvp, 1695650313.01664, 1695650313.001, -0.015641450881958
E4_Bvp, 1695650313.18852, 1695650313.181, -0.00752425193786621
E4_Bvp, 1695650313.36041, 1695650313.338, -0.0224072933197021
E4_Bvp, 1695650313.53229, 1695650313.518, -0.0142903327941895
E4_Bvp, 1695650313.70417, 1695650313.698, -0.00617337226867676
E4_Bvp, 1695650313.87606, 1695650313.878, 0.00194382667541504
E4_Bvp, 1695650314.04794, 1695650314.036, -0.0119390487670898
E4_Bvp, 1695650314.21982, 1695650314.194, -0.0258221626281738
E4_Bvp, 1695650314.39171, 1695650314.374, -0.017704963684082
E4_Bvp, 1695650314.56359, 1695650314.554, -0.00958824157714844
E4_Bvp, 1695650314.73547, 1695650314.711, -0.0244710445404053
E4_Bvp, 1695650314.90735, 1695650314.891, -0.0163538455963135
E4_Bvp, 1695650315.07924, 1695650315.071, -0.00823688507080078
E4_Bvp, 1695650315.25112, 1695650315.228, -0.0231199264526367
E4_Bvp, 1695650315.423, 1695650315.409, -0.0140030384063721
E4_Bvp, 1695650315.59489, 1695650315.588, -0.00688576698303223
E4_Bvp, 1695650315.76677, 1695650315.746, -0.0207686424255371
E4_Bvp, 1695650315.93865, 1695650315.925, -0.0136518478393555
E4_Bvp, 1695650316.11053, 1695650316.106, -0.00453472137451172
E4_Bvp, 1695650316.28242, 1695650316.263, -0.0194175243377686
E4_Bvp, 1695650316.4543, 1695650316.444, -0.0103006362915039
E4_Bvp, 1695650316.62618, 1695650316.601, -0.0251834392547607
E4_Bvp, 1695650316.79807, 1695650316.804, 0.00593328475952148
E4_Bvp, 1695650316.96995, 1695650316.961, -0.00894951820373535
E4_Bvp, 1695650317.14183, 1695650317.141, -0.000832319259643555
E4_Bvp, 1695650317.31372, 1695650317.321, 0.00728464126586914
E4_Bvp, 1695650317.4856, 1695650317.501, 0.0154016017913818
E4_Bvp, 1695650317.65748, 1695650317.636, -0.0214815139770508
E4_Bvp, 1695650317.82936, 1695650317.816, -0.013364315032959
E4_Bvp, 1695650318.00125, 1695650317.996, -0.00524711608886719
E4_Bvp, 1695650318.17313, 1695650318.154, -0.0191302299499512
E4_Bvp, 1695650318.34501, 1695650318.333, -0.0120131969451904
E4_Bvp, 1695650318.5169, 1695650318.491, -0.0258963108062744
E4_Bvp, 1695650318.68878, 1695650318.671, -0.0177791118621826
E4_Bvp, 1695650318.86066, 1695650318.874, 0.0133380889892578
E4_Bvp, 1695650319.03255, 1695650319.008, -0.0245451927185059
E4_Bvp, 1695650319.20443, 1695650319.188, -0.0164279937744141
E4_Bvp, 1695650319.37631, 1695650319.391, 0.0146892070770264
E4_Bvp, 1695650319.54819, 1695650319.525, -0.0231938362121582
E4_Bvp, 1695650319.72008, 1695650319.706, -0.0140767097473145
E4_Bvp, 1695650319.89196, 1695650319.886, -0.00595998764038086
E4_Bvp, 1695650320.06384, 1695650320.044, -0.0198428630828857
E4_Bvp, 1695650320.23573, 1695650320.223, -0.0127255916595459
E4_Bvp, 1695650320.40761, 1695650320.382, -0.0256087779998779
E4_Bvp, 1695650320.57949, 1695650320.572, -0.0074915885925293
E4_Bvp, 1695650320.75137, 1695650320.741, -0.0103747844696045
E4_Bvp, 1695650320.92326, 1695650320.898, -0.0252575874328613
E4_Bvp, 1695650321.09514, 1695650321.078, -0.0171403884887695
E4_Bvp, 1695650321.26702, 1695650321.258, -0.00902366638183594
E4_Bvp, 1695650321.43891, 1695650321.438, -0.000906467437744141
E4_Bvp, 1695650321.61079, 1695650321.596, -0.014789342880249
E4_Bvp, 1695650321.78267, 1695650321.776, -0.00667238235473633
E4_Bvp, 1695650321.95456, 1695650321.933, -0.0215551853179932
E4_Bvp, 1695650322.12644, 1695650322.113, -0.0134384632110596
E4_Bvp, 1695650322.29832, 1695650322.271, -0.0273213386535645
E4_Bvp, 1695650322.4702, 1695650322.452, -0.0182042121887207
E4_Bvp, 1695650322.64209, 1695650322.632, -0.010087251663208
E4_Bvp, 1695650322.81397, 1695650322.788, -0.0259699821472168
E4_Bvp, 1695650322.98585, 1695650322.968, -0.0178532600402832
E4_Bvp, 1695650323.15774, 1695650323.148, -0.00973606109619141
E4_Bvp, 1695650323.32962, 1695650323.328, -0.00161886215209961
E4_Bvp, 1695650323.5015, 1695650323.508, 0.00649785995483398
E4_Bvp, 1695650323.67338, 1695650323.711, 0.0376150608062744
E4_Bvp, 1695650323.84527, 1695650323.823, -0.0222680568695068
E4_Bvp, 1695650324.01715, 1695650324.003, -0.014150857925415
E4_Bvp, 1695650324.18903, 1695650324.183, -0.00603365898132324
E4_Bvp, 1695650324.36092, 1695650324.341, -0.0199167728424072
E4_Bvp, 1695650324.5328, 1695650324.521, -0.0117998123168945
E4_Bvp, 1695650324.70468, 1695650324.701, -0.00368261337280273
E4_Bvp, 1695650324.87657, 1695650324.858, -0.0185656547546387
E4_Bvp, 1695650325.04845, 1695650325.038, -0.0104484558105469
E4_Bvp, 1695650325.22033, 1695650325.196, -0.0243315696716309
E4_Bvp, 1695650325.39221, 1695650325.376, -0.0162146091461182
E4_Bvp, 1695650325.5641, 1695650325.578, 0.0139026641845703
E4_Bvp, 1695650325.73598, 1695650325.713, -0.0229804515838623
E4_Bvp, 1695650325.90786, 1695650325.893, -0.0148634910583496
E4_Bvp, 1695650326.07975, 1695650326.073, -0.00674653053283691
E4_Bvp, 1695650326.25163, 1695650326.231, -0.0206294059753418
E4_Bvp, 1695650326.42351, 1695650326.411, -0.01251220703125
E4_Bvp, 1695650326.5954, 1695650326.57, -0.025395393371582
E4_Bvp, 1695650326.76728, 1695650326.749, -0.0182781219482422
E4_Bvp, 1695650326.93916, 1695650326.929, -0.0101613998413086
E4_Bvp, 1695650327.11104, 1695650327.086, -0.0250442028045654
E4_Bvp, 1695650327.28293, 1695650327.289, 0.006072998046875
E4_Bvp, 1695650327.45481, 1695650327.468, 0.0131897926330566
E4_Bvp, 1695650327.62669, 1695650327.626, -0.000693082809448242
E4_Bvp, 1695650327.79858, 1695650327.783, -0.0155758857727051
E4_Bvp, 1695650327.97046, 1695650327.963, -0.00745892524719238
E4_Bvp, 1695650328.14234, 1695650328.121, -0.0213418006896973
E4_Bvp, 1695650328.31422, 1695650328.302, -0.0122249126434326
E4_Bvp, 1695650328.48611, 1695650328.458, -0.0281078815460205
E4_Bvp, 1695650328.65799, 1695650328.639, -0.0189907550811768
E4_Bvp, 1695650328.82987, 1695650328.819, -0.0108737945556641
E4_Bvp, 1695650329.00176, 1695650328.976, -0.0257565975189209
E4_Bvp, 1695650329.17364, 1695650329.156, -0.0176398754119873
E4_Bvp, 1695650329.34552, 1695650329.336, -0.00952267646789551
E4_Bvp, 1695650329.51741, 1695650329.538, 0.020594596862793
E4_Bvp, 1695650329.68929, 1695650329.696, 0.00671148300170898
E4_Bvp, 1695650329.86117, 1695650329.876, 0.0148284435272217
E4_Bvp, 1695650330.03305, 1695650330.011, -0.0220546722412109
E4_Bvp, 1695650330.20494, 1695650330.192, -0.0129375457763672
E4_Bvp, 1695650330.37682, 1695650330.348, -0.028820276260376
E4_Bvp, 1695650330.5487, 1695650330.53, -0.0187034606933594
E4_Bvp, 1695650330.72059, 1695650330.709, -0.0115861892700195
E4_Bvp, 1695650330.89247, 1695650330.866, -0.0264692306518555
E4_Bvp, 1695650331.06435, 1695650331.046, -0.0183522701263428
E4_Bvp, 1695650331.23624, 1695650331.226, -0.010235071182251
E4_Bvp, 1695650331.40812, 1695650331.384, -0.024118185043335
E4_Bvp, 1695650331.58, 1695650331.563, -0.0170011520385742
E4_Bvp, 1695650331.75188, 1695650331.744, -0.00788402557373047
E4_Bvp, 1695650331.92377, 1695650331.901, -0.0227670669555664
E4_Bvp, 1695650332.09565, 1695650332.081, -0.0146498680114746
E4_Bvp, 1695650332.26753, 1695650332.239, -0.0285329818725586
E4_Bvp, 1695650332.43942, 1695650332.418, -0.0214159488677979
E4_Bvp, 1695650332.6113, 1695650332.599, -0.0122988224029541
E4_Bvp, 1695650332.78318, 1695650332.757, -0.0261819362640381
E4_Bvp, 1695650332.95506, 1695650332.937, -0.0180647373199463
E4_Bvp, 1695650333.12695, 1695650333.117, -0.00994777679443359
E4_Bvp, 1695650333.29883, 1695650333.296, -0.00283074378967285
E4_Bvp, 1695650333.47071, 1695650333.476, 0.00528645515441895
E4_Bvp, 1695650333.6426, 1695650333.633, -0.00959682464599609
E4_Bvp, 1695650333.81448, 1695650333.813, -0.0014796257019043
E4_Bvp, 1695650333.98636, 1695650333.971, -0.0153625011444092
E4_Bvp, 1695650334.15825, 1695650334.151, -0.00724554061889648
E4_Bvp, 1695650334.33013, 1695650334.31, -0.0201284885406494
E4_Bvp, 1695650334.50201, 1695650334.488, -0.0140116214752197
E4_Bvp, 1695650334.67389, 1695650334.646, -0.0278944969177246
E4_Bvp, 1695650334.84578, 1695650334.826, -0.0197772979736328
E4_Bvp, 1695650335.01766, 1695650335.007, -0.0106604099273682
E4_Bvp, 1695650335.18954, 1695650335.163, -0.026543140411377
E4_Bvp, 1695650335.36143, 1695650335.343, -0.0184264183044434
E4_Bvp, 1695650335.53331, 1695650335.524, -0.00930929183959961
E4_Bvp, 1695650335.70519, 1695650335.703, -0.00219202041625977
E4_Bvp, 1695650335.87708, 1695650335.883, 0.00592470169067383
E4_Bvp, 1695650336.04896, 1695650336.063, 0.0140419006347656
E4_Bvp, 1695650336.22084, 1695650336.199, -0.0218410491943359
E4_Bvp, 1695650336.39272, 1695650336.378, -0.0147240161895752
E4_Bvp, 1695650336.56461, 1695650336.536, -0.0286068916320801
E4_Bvp, 1695650336.73649, 1695650336.716, -0.0204899311065674
E4_Bvp, 1695650336.90837, 1695650336.896, -0.0123729705810547
E4_Bvp, 1695650337.08026, 1695650337.053, -0.0272557735443115
E4_Bvp, 1695650337.25214, 1695650337.233, -0.0191388130187988
E4_Bvp, 1695650337.42402, 1695650337.413, -0.011021614074707
E4_Bvp, 1695650337.5959, 1695650337.571, -0.024904727935791
E4_Bvp, 1695650337.76779, 1695650337.751, -0.0167877674102783
E4_Bvp, 1695650337.93967, 1695650337.953, 0.0133295059204102
E4_Bvp, 1695650338.11155, 1695650338.088, -0.0235536098480225
E4_Bvp, 1695650338.28344, 1695650338.269, -0.0144364833831787
E4_Bvp, 1695650338.45532, 1695650338.426, -0.0293195247650146
E4_Bvp, 1695650338.6272, 1695650338.606, -0.021202564239502
E4_Bvp, 1695650338.79909, 1695650338.786, -0.0130853652954102
E4_Bvp, 1695650338.97097, 1695650338.945, -0.0259685516357422
E4_Bvp, 1695650339.14285, 1695650339.124, -0.0188512802124023
E4_Bvp, 1695650339.31473, 1695650339.304, -0.0107343196868896
E4_Bvp, 1695650339.48662, 1695650339.461, -0.0256173610687256
E4_Bvp, 1695650339.6585, 1695650339.641, -0.0175001621246338
E4_Bvp, 1695650339.83038, 1695650339.821, -0.00938320159912109
E4_Bvp, 1695650340.00227, 1695650340.001, -0.0012662410736084
E4_Bvp, 1695650340.17415, 1695650340.158, -0.0161490440368652
E4_Bvp, 1695650340.34603, 1695650340.316, -0.0300321578979492
E4_Bvp, 1695650340.51792, 1695650340.518, 8.48770141601563E-05
E4_Bvp, 1695650340.6898, 1695650340.676, -0.0137979984283447
E4_Bvp, 1695650340.86168, 1695650340.833, -0.0286810398101807
E4_Bvp, 1695650341.03356, 1695650341.013, -0.0205638408660889
E4_Bvp, 1695650341.20545, 1695650341.194, -0.0114469528198242
E4_Bvp, 1695650341.37733, 1695650341.351, -0.0263297557830811
E4_Bvp, 1695650341.54921, 1695650341.531, -0.0182130336761475
E4_Bvp, 1695650341.7211, 1695650341.711, -0.0100958347320557
E4_Bvp, 1695650341.89298, 1695650341.891, -0.00197863578796387
E4_Bvp, 1695650342.06486, 1695650342.071, 0.00613832473754883
E4_Bvp, 1695650342.23674, 1695650342.206, -0.0307445526123047
E4_Bvp, 1695650342.40863, 1695650342.386, -0.022627592086792
E4_Bvp, 1695650342.58051, 1695650342.566, -0.0145106315612793
E4_Bvp, 1695650342.75239, 1695650342.723, -0.0293934345245361
E4_Bvp, 1695650342.92428, 1695650342.903, -0.0212764739990234
E4_Bvp, 1695650343.09616, 1695650343.084, -0.0121593475341797
E4_Bvp, 1695650343.26804, 1695650343.241, -0.0270423889160156
E4_Bvp, 1695650343.43993, 1695650343.421, -0.0189254283905029
E4_Bvp, 1695650343.61181, 1695650343.601, -0.0108082294464111
E4_Bvp, 1695650343.78369, 1695650343.759, -0.0246913433074951
E4_Bvp, 1695650343.95557, 1695650343.939, -0.0165743827819824
E4_Bvp, 1695650344.12746, 1695650344.141, 0.0135428905487061
E4_Bvp, 1695650344.29934, 1695650344.276, -0.0233402252197266
E4_Bvp, 1695650344.47122, 1695650344.456, -0.0152230262756348
E4_Bvp, 1695650344.64311, 1695650344.614, -0.0291061401367188
E4_Bvp, 1695650344.81499, 1695650344.793, -0.021989107131958
E4_Bvp, 1695650344.98687, 1695650344.974, -0.0128719806671143
E4_Bvp, 1695650345.15876, 1695650345.132, -0.0267550945281982
E4_Bvp, 1695650345.33064, 1695650345.312, -0.0186378955841064
E4_Bvp, 1695650345.50252, 1695650345.514, 0.0114791393280029
E4_Bvp, 1695650345.6744, 1695650345.649, -0.0254039764404297
E4_Bvp, 1695650345.84629, 1695650345.828, -0.0182867050170898
E4_Bvp, 1695650346.01817, 1695650346.008, -0.0101699829101563
E4_Bvp, 1695650346.19005, 1695650346.189, -0.0010528564453125
E4_Bvp, 1695650346.36194, 1695650346.346, -0.0159356594085693
E4_Bvp, 1695650346.53382, 1695650346.504, -0.0298187732696533
E4_Bvp, 1695650346.7057, 1695650346.684, -0.0217015743255615
E4_Bvp, 1695650346.87758, 1695650346.863, -0.0145847797393799
E4_Bvp, 1695650347.04947, 1695650347.021, -0.0284676551818848
E4_Bvp, 1695650347.22135, 1695650347.201, -0.020350456237793
E4_Bvp, 1695650347.39323, 1695650347.382, -0.0112335681915283
E4_Bvp, 1695650347.56512, 1695650347.538, -0.0271162986755371
E4_Bvp, 1695650347.737, 1695650347.719, -0.0179994106292725
E4_Bvp, 1695650347.90888, 1695650347.898, -0.0108823776245117
E4_Bvp, 1695650348.08077, 1695650348.078, -0.00276517868041992
E4_Bvp, 1695650348.25265, 1695650348.236, -0.0166482925415039
E4_Bvp, 1695650348.42453, 1695650348.394, -0.0305311679840088
E4_Bvp, 1695650348.59641, 1695650348.574, -0.0224142074584961
E4_Bvp, 1695650348.7683, 1695650348.753, -0.0152971744537354
E4_Bvp, 1695650348.94018, 1695650348.911, -0.0291800498962402
E4_Bvp, 1695650349.11206, 1695650349.091, -0.0210630893707275
E4_Bvp, 1695650349.28395, 1695650349.271, -0.0129461288452148
E4_Bvp, 1695650349.45583, 1695650349.452, -0.00382900238037109
E4_Bvp, 1695650349.62771, 1695650349.609, -0.018712043762207
E4_Bvp, 1695650349.79959, 1695650349.812, 0.0124051570892334
E4_Bvp, 1695650349.97148, 1695650349.946, -0.0254778861999512
E4_Bvp, 1695650350.14336, 1695650350.126, -0.0173609256744385
E4_Bvp, 1695650350.31524, 1695650350.329, 0.013756275177002
E4_Bvp, 1695650350.48713, 1695650350.463, -0.0241267681121826
E4_Bvp, 1695650350.65901, 1695650350.644, -0.0150096416473389
E4_Bvp, 1695650350.83089, 1695650350.801, -0.0298924446105957
E4_Bvp, 1695650351.00278, 1695650350.981, -0.0217757225036621
E4_Bvp, 1695650351.17466, 1695650351.162, -0.0126585960388184
E4_Bvp, 1695650351.34654, 1695650351.342, -0.00454163551330566
E4_Bvp, 1695650351.51842, 1695650351.499, -0.0194244384765625
E4_Bvp, 1695650351.69031, 1695650351.679, -0.0113074779510498
E4_Bvp, 1695650351.86219, 1695650351.837, -0.0251905918121338
E4_Bvp, 1695650352.03407, 1695650352.016, -0.0180733203887939
E4_Bvp, 1695650352.20596, 1695650352.196, -0.00995635986328125
E4_Bvp, 1695650352.37784, 1695650352.354, -0.0238392353057861
E4_Bvp, 1695650352.54972, 1695650352.534, -0.0157222747802734
E4_Bvp, 1695650352.72161, 1695650352.691, -0.0306053161621094
E4_Bvp, 1695650352.89349, 1695650352.871, -0.0224881172180176
E4_Bvp, 1695650353.06537, 1695650353.051, -0.0143711566925049
E4_Bvp, 1695650353.23725, 1695650353.209, -0.0282540321350098
E4_Bvp, 1695650353.40914, 1695650353.389, -0.0201370716094971
E4_Bvp, 1695650353.58102, 1695650353.569, -0.0120201110839844
E4_Bvp, 1695650353.7529, 1695650353.726, -0.0269029140472412
E4_Bvp, 1695650353.92479, 1695650353.906, -0.0187859535217285
E4_Bvp, 1695650354.09667, 1695650354.086, -0.0106689929962158
E4_Bvp, 1695650354.26855, 1695650354.244, -0.0245518684387207
E4_Bvp, 1695650354.44043, 1695650354.469, 0.0285651683807373
E4_Bvp, 1695650354.61232, 1695650354.581, -0.0313177108764648
E4_Bvp, 1695650354.7842, 1695650354.761, -0.0232007503509521
E4_Bvp, 1695650354.95608, 1695650354.941, -0.0150837898254395
E4_Bvp, 1695650355.12797, 1695650355.099, -0.0289666652679443
E4_Bvp, 1695650355.29985, 1695650355.279, -0.0208497047424316
E4_Bvp, 1695650355.47173, 1695650355.459, -0.0127325057983398
E4_Bvp, 1695650355.64362, 1695650355.617, -0.0266153812408447
E4_Bvp, 1695650355.8155, 1695650355.796, -0.0194985866546631
E4_Bvp, 1695650355.98738, 1695650355.999, 0.0116186141967773
E4_Bvp, 1695650356.15926, 1695650356.134, -0.0252645015716553
E4_Bvp, 1695650356.33115, 1695650356.338, 0.00685262680053711
E4_Bvp, 1695650356.50303, 1695650356.471, -0.0320303440093994
E4_Bvp, 1695650356.67491, 1695650356.674, -0.000913381576538086
E4_Bvp, 1695650356.8468, 1695650356.831, -0.0157961845397949
E4_Bvp, 1695650357.01868, 1695650356.989, -0.0296790599822998
E4_Bvp, 1695650357.19056, 1695650357.17, -0.0205621719360352
E4_Bvp, 1695650357.36245, 1695650357.349, -0.0134451389312744
E4_Bvp, 1695650357.53433, 1695650357.508, -0.0263283252716064
E4_Bvp, 1695650357.70621, 1695650357.687, -0.0192110538482666
E4_Bvp, 1695650357.87809, 1695650357.867, -0.0110938549041748
E4_Bvp, 1695650358.04998, 1695650358.024, -0.0259771347045898
E4_Bvp, 1695650358.22186, 1695650358.204, -0.017859935760498
E4_Bvp, 1695650358.39374, 1695650358.384, -0.00974297523498535
E4_Bvp, 1695650358.56563, 1695650358.564, -0.00162601470947266
E4_Bvp, 1695650358.73751, 1695650358.722, -0.0155088901519775
E4_Bvp, 1695650358.90939, 1695650358.879, -0.0303919315338135
E4_Bvp, 1695650359.08127, 1695650359.059, -0.0222747325897217
E4_Bvp, 1695650359.25316, 1695650359.239, -0.014157772064209
E4_Bvp, 1695650359.42504, 1695650359.396, -0.0290408134460449
E4_Bvp, 1695650359.59692, 1695650359.576, -0.0209236145019531
E4_Bvp, 1695650359.76881, 1695650359.757, -0.0118067264556885
E4_Bvp, 1695650359.94069, 1695650359.914, -0.0266895294189453
E4_Bvp, 1695650360.11257, 1695650360.094, -0.0185723304748535
E4_Bvp, 1695650360.28446, 1695650360.274, -0.0104556083679199
E4_Bvp, 1695650360.45634, 1695650360.454, -0.00233840942382813
E4_Bvp, 1695650360.62822, 1695650360.634, 0.00577855110168457
E4_Bvp, 1695650360.8001, 1695650360.791, -0.00910449028015137
E4_Bvp, 1695650360.97199, 1695650360.949, -0.0229873657226563
E4_Bvp, 1695650361.14387, 1695650361.129, -0.0148704051971436
E4_Bvp, 1695650361.31575, 1695650361.286, -0.0297532081604004
E4_Bvp, 1695650361.48764, 1695650361.466, -0.0216362476348877
E4_Bvp, 1695650361.65952, 1695650361.647, -0.0125191211700439
E4_Bvp, 1695650361.8314, 1695650361.804, -0.0274021625518799
E4_Bvp, 1695650362.00329, 1695650361.984, -0.0192852020263672
E4_Bvp, 1695650362.17517, 1695650362.141, -0.034168004989624
E4_Bvp, 1695650362.34705, 1695650362.323, -0.0240511894226074
E4_Bvp, 1695650362.51893, 1695650362.502, -0.0169339179992676
E4_Bvp, 1695650362.69082, 1695650362.659, -0.0318169593811035
E4_Bvp, 1695650362.8627, 1695650362.839, -0.0236999988555908
E4_Bvp, 1695650363.03458, 1695650363.019, -0.015582799911499
E4_Bvp, 1695650363.20647, 1695650363.177, -0.0294656753540039
E4_Bvp, 1695650363.37835, 1695650363.356, -0.0223488807678223
E4_Bvp, 1695650363.55023, 1695650363.537, -0.0132317543029785
E4_Bvp, 1695650363.72211, 1695650363.716, -0.00611472129821777
E4_Bvp, 1695650363.894, 1695650363.875, -0.0189976692199707
E4_Bvp, 1695650364.06588, 1695650364.054, -0.01188063621521
E4_Bvp, 1695650364.23776, 1695650364.211, -0.0267636775970459
E4_Bvp, 1695650364.40965, 1695650364.391, -0.0186464786529541
E4_Bvp, 1695650364.58153, 1695650364.571, -0.0105295181274414
E4_Bvp, 1695650364.75341, 1695650364.729, -0.0244123935699463
E4_Bvp, 1695650364.9253, 1695650364.909, -0.0162954330444336
E4_Bvp, 1695650365.09718, 1695650365.067, -0.0301785469055176
E4_Bvp, 1695650365.26906, 1695650365.247, -0.0220613479614258
E4_Bvp, 1695650365.44094, 1695650365.426, -0.014944314956665
E4_Bvp, 1695650365.61283, 1695650365.584, -0.0288271903991699
E4_Bvp, 1695650365.78471, 1695650365.764, -0.0207102298736572
E4_Bvp, 1695650365.95659, 1695650365.945, -0.0115933418273926
E4_Bvp, 1695650366.12848, 1695650366.102, -0.0264761447906494
E4_Bvp, 1695650366.30036, 1695650366.282, -0.0183589458465576
E4_Bvp, 1695650366.47224, 1695650366.462, -0.010242223739624
E4_Bvp, 1695650366.64412, 1695650366.642, -0.00212502479553223
E4_Bvp, 1695650366.81601, 1695650366.844, 0.0279920101165771
E4_Bvp, 1695650366.98789, 1695650366.957, -0.030890941619873
E4_Bvp, 1695650367.15977, 1695650367.159, -0.000773906707763672
E4_Bvp, 1695650367.33166, 1695650367.317, -0.0146570205688477
E4_Bvp, 1695650367.50354, 1695650367.497, -0.00653982162475586
E4_Bvp, 1695650367.67542, 1695650367.655, -0.0204229354858398
E4_Bvp, 1695650367.84731, 1695650367.834, -0.0133056640625
E4_Bvp, 1695650368.01919, 1695650367.993, -0.0261886119842529
E4_Bvp, 1695650368.19107, 1695650368.172, -0.0190718173980713
E4_Bvp, 1695650368.36295, 1695650368.33, -0.0329546928405762
E4_Bvp, 1695650368.53484, 1695650368.509, -0.0258374214172363
E4_Bvp, 1695650368.70672, 1695650368.712, 0.0052793025970459
E4_Bvp, 1695650368.8786, 1695650368.846, -0.0326035022735596
E4_Bvp, 1695650369.05049, 1695650369.027, -0.0234866142272949
E4_Bvp, 1695650369.22237, 1695650369.207, -0.0153694152832031
E4_Bvp, 1695650369.39425, 1695650369.365, -0.029252290725708
E4_Bvp, 1695650369.56614, 1695650369.544, -0.0221354961395264
E4_Bvp, 1695650369.73802, 1695650369.724, -0.0140182971954346
E4_Bvp, 1695650369.9099, 1695650369.883, -0.0269014835357666
E4_Bvp, 1695650370.08178, 1695650370.062, -0.0197842121124268
E4_Bvp, 1695650370.25367, 1695650370.219, -0.0346670150756836
E4_Bvp, 1695650370.42555, 1695650370.445, 0.0194497108459473
E4_Bvp, 1695650370.59743, 1695650370.58, -0.0174331665039063
E4_Bvp, 1695650370.76932, 1695650370.737, -0.0323162078857422
E4_Bvp, 1695650370.9412, 1695650370.939, -0.00219917297363281
E4_Bvp, 1695650371.11308, 1695650371.097, -0.0160820484161377
E4_Bvp, 1695650371.28497, 1695650371.254, -0.0309650897979736
E4_Bvp, 1695650371.45685, 1695650371.434, -0.0228478908538818
E4_Bvp, 1695650371.62873, 1695650371.614, -0.01473069190979
E4_Bvp, 1695650371.80061, 1695650371.773, -0.0276138782501221
E4_Bvp, 1695650371.9725, 1695650371.951, -0.0214967727661133
E4_Bvp, 1695650372.14438, 1695650372.155, 0.0106201171875
E4_Bvp, 1695650372.31626, 1695650372.29, -0.0262627601623535
E4_Bvp, 1695650372.48815, 1695650372.469, -0.0191454887390137
E4_Bvp, 1695650372.66003, 1695650372.627, -0.0330286026000977
E4_Bvp, 1695650372.83191, 1695650372.829, -0.00291156768798828
E4_Bvp, 1695650373.00379, 1695650373.009, 0.00520539283752441
E4_Bvp, 1695650373.17568, 1695650373.144, -0.0316774845123291
E4_Bvp, 1695650373.34756, 1695650373.324, -0.0235605239868164
E4_Bvp, 1695650373.51944, 1695650373.504, -0.0154435634613037
E4_Bvp, 1695650373.69133, 1695650373.663, -0.0283262729644775
E4_Bvp, 1695650373.86321, 1695650373.842, -0.0212094783782959
E4_Bvp, 1695650374.03509, 1695650374.022, -0.0130922794342041
E4_Bvp, 1695650374.20698, 1695650374.18, -0.026975154876709
E4_Bvp, 1695650374.37886, 1695650374.36, -0.0188584327697754
E4_Bvp, 1695650374.55074, 1695650374.539, -0.0117411613464355
E4_Bvp, 1695650374.72262, 1695650374.697, -0.0256240367889404
E4_Bvp, 1695650374.89451, 1695650374.877, -0.0175070762634277
E4_Bvp, 1695650375.06639, 1695650375.034, -0.0323901176452637
E4_Bvp, 1695650375.23827, 1695650375.214, -0.024273157119751
E4_Bvp, 1695650375.41016, 1695650375.394, -0.0161559581756592
E4_Bvp, 1695650375.58204, 1695650375.552, -0.0300388336181641
E4_Bvp, 1695650375.75392, 1695650375.731, -0.0229220390319824
E4_Bvp, 1695650375.9258, 1695650375.912, -0.0138049125671387
E4_Bvp, 1695650376.09769, 1695650376.069, -0.0286879539489746
E4_Bvp, 1695650376.26957, 1695650376.25, -0.0195708274841309
E4_Bvp, 1695650376.44145, 1695650376.43, -0.0114536285400391
E4_Bvp, 1695650376.61334, 1695650376.587, -0.0263369083404541
E4_Bvp, 1695650376.78522, 1695650376.789, 0.00378036499023438
E4_Bvp, 1695650376.9571, 1695650376.947, -0.0101027488708496
E4_Bvp, 1695650377.12899, 1695650377.149, 0.0200142860412598
E4_Bvp, 1695650377.30087, 1695650377.307, 0.00613141059875488
E4_Bvp, 1695650377.47275, 1695650377.442, -0.0307517051696777
E4_Bvp, 1695650377.64463, 1695650377.622, -0.0226345062255859
E4_Bvp, 1695650377.81652, 1695650377.802, -0.0145173072814941
E4_Bvp, 1695650377.9884, 1695650377.959, -0.0294003486633301
E4_Bvp, 1695650378.16028, 1695650378.139, -0.0212833881378174
E4_Bvp, 1695650378.33217, 1695650378.298, -0.0341663360595703
E4_Bvp, 1695650378.50405, 1695650378.522, 0.0179507732391357
E4_Bvp, 1695650378.67593, 1695650378.68, 0.00406789779663086
E4_Bvp, 1695650378.84782, 1695650378.814, -0.0338153839111328
E4_Bvp, 1695650379.0197, 1695650379.017, -0.00269818305969238
E4_Bvp, 1695650379.19158, 1695650379.197, 0.00541877746582031
E4_Bvp, 1695650379.36346, 1695650379.332, -0.0314640998840332
E4_Bvp, 1695650379.53535, 1695650379.512, -0.0233469009399414
E4_Bvp, 1695650379.70723, 1695650379.692, -0.0152301788330078
E4_Bvp, 1695650379.87911, 1695650379.849, -0.0301129817962646
E4_Bvp, 1695650380.051, 1695650380.029, -0.021996021270752
E4_Bvp, 1695650380.22288, 1695650380.188, -0.0348789691925049
E4_Bvp, 1695650380.39476, 1695650380.368, -0.0267617702484131
E4_Bvp, 1695650380.56664, 1695650380.547, -0.0196449756622314
E4_Bvp, 1695650380.73853, 1695650380.704, -0.0345277786254883
E4_Bvp, 1695650380.91041, 1695650380.884, -0.0264105796813965
E4_Bvp, 1695650381.08229, 1695650381.064, -0.0182938575744629
E4_Bvp, 1695650381.25418, 1695650381.222, -0.0321767330169678
E4_Bvp, 1695650381.42606, 1695650381.402, -0.0240597724914551
E4_Bvp, 1695650381.59794, 1695650381.604, 0.0060575008392334
E4_Bvp, 1695650381.76983, 1695650381.739, -0.0308253765106201
E4_Bvp, 1695650381.94171, 1695650381.919, -0.0227086544036865
E4_Bvp, 1695650382.11359, 1695650382.099, -0.0145914554595947
E4_Bvp, 1695650382.28547, 1695650382.257, -0.0284745693206787
E4_Bvp, 1695650382.45736, 1695650382.438, -0.019357442855835
E4_Bvp, 1695650382.62924, 1695650382.594, -0.0352401733398438
E4_Bvp, 1695650382.80112, 1695650382.798, -0.00312328338623047
E4_Bvp, 1695650382.97301, 1695650382.977, 0.00399374961853027
E4_Bvp, 1695650383.14489, 1695650383.134, -0.0108890533447266
E4_Bvp, 1695650383.31677, 1695650383.314, -0.00277233123779297
E4_Bvp, 1695650383.48866, 1695650383.472, -0.0166552066802979
E4_Bvp, 1695650383.66054, 1695650383.629, -0.0315382480621338
E4_Bvp, 1695650383.83242, 1695650383.81, -0.02242112159729
E4_Bvp, 1695650384.0043, 1695650383.989, -0.0153038501739502
E4_Bvp, 1695650384.17619, 1695650384.147, -0.0291869640350342
E4_Bvp, 1695650384.34807, 1695650384.327, -0.0210700035095215
E4_Bvp, 1695650384.51995, 1695650384.484, -0.0359530448913574
E4_Bvp, 1695650384.69184, 1695650384.664, -0.0278358459472656
E4_Bvp, 1695650384.86372, 1695650384.845, -0.0187187194824219
E4_Bvp, 1695650385.0356, 1695650385.002, -0.0336017608642578
E4_Bvp, 1695650385.20748, 1695650385.182, -0.0254848003387451
E4_Bvp, 1695650385.37937, 1695650385.384, 0.00463223457336426
E4_Bvp, 1695650385.55125, 1695650385.519, -0.0322506427764893
E4_Bvp, 1695650385.72313, 1695650385.699, -0.0241336822509766
E4_Bvp, 1695650385.89502, 1695650385.879, -0.0160167217254639
E4_Bvp, 1695650386.0669, 1695650386.037, -0.0298995971679688
E4_Bvp, 1695650386.23878, 1695650386.217, -0.021782398223877
E4_Bvp, 1695650386.41067, 1695650386.375, -0.0356655120849609
E4_Bvp, 1695650386.58255, 1695650386.555, -0.0275483131408691
E4_Bvp, 1695650386.75443, 1695650386.735, -0.0194315910339355
E4_Bvp, 1695650386.92631, 1695650386.892, -0.0343143939971924
E4_Bvp, 1695650387.0982, 1695650387.072, -0.0261971950531006
E4_Bvp, 1695650387.27008, 1695650387.252, -0.0180802345275879
E4_Bvp, 1695650387.44196, 1695650387.432, -0.0099632740020752
E4_Bvp, 1695650387.61385, 1695650387.589, -0.0248463153839111
E4_Bvp, 1695650387.78573, 1695650387.769, -0.0167291164398193
E4_Bvp, 1695650387.95761, 1695650387.927, -0.0306119918823242
E4_Bvp, 1695650388.1295, 1695650388.107, -0.0224950313568115
E4_Bvp, 1695650388.30138, 1695650388.264, -0.0373780727386475
E4_Bvp, 1695650388.47326, 1695650388.467, -0.00626111030578613
E4_Bvp, 1695650388.64514, 1695650388.625, -0.020143985748291
E4_Bvp, 1695650388.81703, 1695650388.782, -0.0350267887115479
E4_Bvp, 1695650388.98891, 1695650388.962, -0.0269100666046143
E4_Bvp, 1695650389.16079, 1695650389.142, -0.0187928676605225
E4_Bvp, 1695650389.33268, 1695650389.322, -0.0106756687164307
E4_Bvp, 1695650389.50456, 1695650389.502, -0.00255870819091797
E4_Bvp, 1695650389.67644, 1695650389.659, -0.0174417495727539
E4_Bvp, 1695650389.84832, 1695650389.817, -0.0313248634338379
E4_Bvp, 1695650390.02021, 1695650389.997, -0.0232076644897461
E4_Bvp, 1695650390.19209, 1695650390.156, -0.036090612411499
E4_Bvp, 1695650390.36397, 1695650390.334, -0.0299735069274902
E4_Bvp, 1695650390.53586, 1695650390.514, -0.0218565464019775
E4_Bvp, 1695650390.70774, 1695650390.672, -0.0357396602630615
E4_Bvp, 1695650390.87962, 1695650390.852, -0.0276224613189697
E4_Bvp, 1695650391.05151, 1695650391.032, -0.0195052623748779
E4_Bvp, 1695650391.22339, 1695650391.189, -0.034388542175293
E4_Bvp, 1695650391.39527, 1695650391.369, -0.0262713432312012
E4_Bvp, 1695650391.56715, 1695650391.572, 0.00484561920166016
E4_Bvp, 1695650391.73904, 1695650391.707, -0.0320372581481934
E4_Bvp, 1695650391.91092, 1695650391.887, -0.0239200592041016
E4_Bvp, 1695650392.0828, 1695650392.067, -0.015803337097168
E4_Bvp, 1695650392.25469, 1695650392.224, -0.0306861400604248
E4_Bvp, 1695650392.42657, 1695650392.405, -0.0215690135955811
E4_Bvp, 1695650392.59845, 1695650392.563, -0.035452127456665
E4_Bvp, 1695650392.77033, 1695650392.742, -0.0283348560333252
E4_Bvp, 1695650392.94222, 1695650392.923, -0.0192179679870605
E4_Bvp, 1695650393.1141, 1695650393.08, -0.0341010093688965
E4_Bvp, 1695650393.28598, 1695650393.282, -0.00398373603820801
E4_Bvp, 1695650393.45787, 1695650393.439, -0.018867015838623
E4_Bvp, 1695650393.62975, 1695650393.619, -0.0107498168945313
E4_Bvp, 1695650393.80163, 1695650393.799, -0.00263285636901855
E4_Bvp, 1695650393.97352, 1695650393.957, -0.0165157318115234
E4_Bvp, 1695650394.1454, 1695650394.115, -0.0303986072540283
E4_Bvp, 1695650394.31728, 1695650394.296, -0.0212817192077637
E4_Bvp, 1695650394.48916, 1695650394.452, -0.0371646881103516
E4_Bvp, 1695650394.66105, 1695650394.633, -0.0280478000640869
E4_Bvp, 1695650394.83293, 1695650394.813, -0.0199306011199951
E4_Bvp, 1695650395.00481, 1695650394.97, -0.034813404083252
E4_Bvp, 1695650395.1767, 1695650395.149, -0.0276966094970703
E4_Bvp, 1695650395.34858, 1695650395.33, -0.0185794830322266
E4_Bvp, 1695650395.52046, 1695650395.51, -0.0104622840881348
E4_Bvp, 1695650395.69235, 1695650395.689, -0.00334548950195313
E4_Bvp, 1695650395.86423, 1695650395.87, 0.00577163696289063
E4_Bvp, 1695650396.03611, 1695650396.005, -0.0311112403869629
E4_Bvp, 1695650396.20799, 1695650396.185, -0.0229942798614502
E4_Bvp, 1695650396.37988, 1695650396.342, -0.037877082824707
E4_Bvp, 1695650396.55176, 1695650396.522, -0.0297601222991943
E4_Bvp, 1695650396.72364, 1695650396.702, -0.0216431617736816
E4_Bvp, 1695650396.89553, 1695650396.859, -0.0365262031555176
E4_Bvp, 1695650397.06741, 1695650397.04, -0.0274090766906738
E4_Bvp, 1695650397.23929, 1695650397.219, -0.020291805267334
E4_Bvp, 1695650397.41118, 1695650397.377, -0.034174919128418
E4_Bvp, 1695650397.58306, 1695650397.579, -0.00405788421630859
E4_Bvp, 1695650397.75494, 1695650397.737, -0.0179407596588135
E4_Bvp, 1695650397.92682, 1695650397.895, -0.0318238735198975
E4_Bvp, 1695650398.09871, 1695650398.075, -0.0237066745758057
E4_Bvp, 1695650398.27059, 1695650398.232, -0.0385897159576416
E4_Bvp, 1695650398.44247, 1695650398.412, -0.0304727554321289
E4_Bvp, 1695650398.61436, 1695650398.592, -0.0223555564880371
E4_Bvp, 1695650398.78624, 1695650398.751, -0.0352387428283691
E4_Bvp, 1695650398.95812, 1695650398.93, -0.0281214714050293
E4_Bvp, 1695650399.13, 1695650399.11, -0.0200047492980957
E4_Bvp, 1695650399.30189, 1695650399.29, -0.0118875503540039
E4_Bvp, 1695650399.47377, 1695650399.447, -0.0267703533172607
E4_Bvp, 1695650399.64565, 1695650399.627, -0.018653392791748
E4_Bvp, 1695650399.81754, 1695650399.807, -0.0105364322662354
E4_Bvp, 1695650399.98942, 1695650399.965, -0.0244195461273193
E4_Bvp, 1695650400.1613, 1695650400.145, -0.0163023471832275
E4_Bvp, 1695650400.33319, 1695650400.303, -0.0301852226257324
E4_Bvp, 1695650400.50507, 1695650400.482, -0.0230681896209717
E4_Bvp, 1695650400.67695, 1695650400.64, -0.0369510650634766
E4_Bvp, 1695650400.84883, 1695650400.821, -0.0278339385986328
E4_Bvp, 1695650401.02072, 1695650401, -0.0207171440124512
E4_Bvp, 1695650401.1926, 1695650401.157, -0.035599946975708
E4_Bvp, 1695650401.36448, 1695650401.337, -0.0274832248687744
E4_Bvp, 1695650401.53637, 1695650401.517, -0.0193660259246826
E4_Bvp, 1695650401.70825, 1695650401.697, -0.0112488269805908
E4_Bvp, 1695650401.88013, 1695650401.854, -0.0261318683624268
E4_Bvp, 1695650402.05201, 1695650402.057, 0.00498509407043457
E4_Bvp, 1695650402.2239, 1695650402.192, -0.031898021697998
E4_Bvp, 1695650402.39578, 1695650402.372, -0.0237808227539063
E4_Bvp, 1695650402.56766, 1695650402.53, -0.0376636981964111
E4_Bvp, 1695650402.73955, 1695650402.732, -0.00754666328430176
E4_Bvp, 1695650402.91143, 1695650402.89, -0.0214295387268066
E4_Bvp, 1695650403.08331, 1695650403.047, -0.0363128185272217
E4_Bvp, 1695650403.2552, 1695650403.227, -0.0281956195831299
E4_Bvp, 1695650403.42708, 1695650403.407, -0.0200784206390381
E4_Bvp, 1695650403.59896, 1695650403.565, -0.0339615345001221
E4_Bvp, 1695650403.77084, 1695650403.745, -0.0258445739746094
E4_Bvp, 1695650403.94273, 1695650403.947, 0.0042726993560791
E4_Bvp, 1695650404.11461, 1695650404.082, -0.0326104164123535
E4_Bvp, 1695650404.28649, 1695650404.262, -0.0244932174682617
E4_Bvp, 1695650404.45838, 1695650404.442, -0.0163764953613281
E4_Bvp, 1695650404.63026, 1695650404.622, -0.00825929641723633
E4_Bvp, 1695650404.80214, 1695650404.78, -0.0221421718597412
E4_Bvp, 1695650404.97403, 1695650404.938, -0.0360252857208252
E4_Bvp, 1695650405.14591, 1695650405.118, -0.0279080867767334
E4_Bvp, 1695650405.31779, 1695650405.298, -0.0197911262512207
E4_Bvp, 1695650405.48967, 1695650405.455, -0.0346741676330566
E4_Bvp, 1695650405.66156, 1695650405.635, -0.0265569686889648
E4_Bvp, 1695650405.83344, 1695650405.814, -0.0194401741027832
E4_Bvp, 1695650406.00532, 1695650405.995, -0.0103230476379395
E4_Bvp, 1695650406.17721, 1695650406.152, -0.0252060890197754
E4_Bvp, 1695650406.34909, 1695650406.31, -0.0390889644622803
E4_Bvp, 1695650406.52097, 1695650406.49, -0.0309717655181885
E4_Bvp, 1695650406.69285, 1695650406.67, -0.0228548049926758
E4_Bvp, 1695650406.86474, 1695650406.827, -0.0377378463745117
E4_Bvp, 1695650407.03662, 1695650407.007, -0.0296206474304199
E4_Bvp, 1695650407.2085, 1695650407.188, -0.0205037593841553
E4_Bvp, 1695650407.38039, 1695650407.345, -0.0353865623474121
E4_Bvp, 1695650407.55227, 1695650407.525, -0.0272696018218994
E4_Bvp, 1695650407.72415, 1695650407.705, -0.0191526412963867
E4_Bvp, 1695650407.89604, 1695650407.885, -0.0110354423522949
E4_Bvp, 1695650408.06792, 1695650408.042, -0.0259184837341309
E4_Bvp, 1695650408.2398, 1695650408.222, -0.0178015232086182
E4_Bvp, 1695650408.41168, 1695650408.38, -0.031684398651123
E4_Bvp, 1695650408.58357, 1695650408.56, -0.0235674381256104
E4_Bvp, 1695650408.75545, 1695650408.74, -0.0154502391815186
E4_Bvp, 1695650408.92733, 1695650408.897, -0.0303332805633545
E4_Bvp, 1695650409.09922, 1695650409.077, -0.0222163200378418
E4_Bvp, 1695650409.2711, 1695650409.235, -0.0360994338989258
E4_Bvp, 1695650409.44298, 1695650409.415, -0.027982234954834
E4_Bvp, 1695650409.61487, 1695650409.595, -0.0198650360107422
E4_Bvp, 1695650409.78675, 1695650409.752, -0.0347480773925781
E4_Bvp, 1695650409.95863, 1695650409.932, -0.0266311168670654
E4_Bvp, 1695650410.13051, 1695650410.135, 0.004486083984375
E4_Bvp, 1695650410.3024, 1695650410.27, -0.0323970317840576
E4_Bvp, 1695650410.47428, 1695650410.45, -0.0242798328399658
E4_Bvp, 1695650410.64616, 1695650410.607, -0.0391628742218018
E4_Bvp, 1695650410.81805, 1695650410.787, -0.0310459136962891
E4_Bvp, 1695650410.98993, 1695650410.967, -0.0229287147521973
E4_Bvp, 1695650411.16181, 1695650411.126, -0.0358119010925293
E4_Bvp, 1695650411.33369, 1695650411.305, -0.0286946296691895
E4_Bvp, 1695650411.50558, 1695650411.485, -0.0205779075622559
E4_Bvp, 1695650411.67746, 1695650411.642, -0.0354607105255127
E4_Bvp, 1695650411.84934, 1695650411.845, -0.00434350967407227
E4_Bvp, 1695650412.02123, 1695650412.002, -0.0192265510559082
E4_Bvp, 1695650412.19311, 1695650412.182, -0.0111095905303955
E4_Bvp, 1695650412.36499, 1695650412.34, -0.0249924659729004
E4_Bvp, 1695650412.53688, 1695650412.52, -0.0168755054473877
E4_Bvp, 1695650412.70876, 1695650412.678, -0.0307583808898926
E4_Bvp, 1695650412.88064, 1695650412.857, -0.0236413478851318
E4_Bvp, 1695650413.05252, 1695650413.015, -0.0375242233276367
E4_Bvp, 1695650413.22441, 1695650413.195, -0.029407262802124
E4_Bvp, 1695650413.39629, 1695650413.376, -0.0202903747558594
E4_Bvp, 1695650413.56817, 1695650413.532, -0.0361731052398682
E4_Bvp, 1695650413.74006, 1695650413.712, -0.0280563831329346
E4_Bvp, 1695650413.91194, 1695650413.892, -0.0199391841888428
E4_Bvp, 1695650414.08382, 1695650414.072, -0.011821985244751
E4_Bvp, 1695650414.25571, 1695650414.23, -0.025705099105835
E4_Bvp, 1695650414.42759, 1695650414.41, -0.0175879001617432
E4_Bvp, 1695650414.59947, 1695650414.567, -0.0324711799621582
E4_Bvp, 1695650414.77135, 1695650414.747, -0.0243539810180664
E4_Bvp, 1695650414.94324, 1695650414.905, -0.0382368564605713
E4_Bvp, 1695650415.11512, 1695650415.085, -0.0301198959350586
E4_Bvp, 1695650415.287, 1695650415.287, -2.86102294921875E-06
E4_Bvp, 1695650415.45889, 1695650415.445, -0.0138857364654541
E4_Bvp, 1695650415.63077, 1695650415.602, -0.02876877784729
E4_Bvp, 1695650415.80265, 1695650415.782, -0.0206515789031982
E4_Bvp, 1695650415.97453, 1695650415.94, -0.0345346927642822
E4_Bvp, 1695650416.14642, 1695650416.12, -0.0264177322387695
E4_Bvp, 1695650416.3183, 1695650416.277, -0.0413005352020264
E4_Bvp, 1695650416.49018, 1695650416.457, -0.0331835746765137
E4_Bvp, 1695650416.66207, 1695650416.637, -0.0250663757324219
E4_Bvp, 1695650416.83395, 1695650416.795, -0.0389494895935059
E4_Bvp, 1695650417.00583, 1695650416.975, -0.0308325290679932
E4_Bvp, 1695650417.17772, 1695650417.155, -0.0227153301239014
E4_Bvp, 1695650417.3496, 1695650417.314, -0.0355985164642334
E4_Bvp, 1695650417.52148, 1695650417.493, -0.0284812450408936
E4_Bvp, 1695650417.69336, 1695650417.673, -0.0203642845153809
E4_Bvp, 1695650417.86525, 1695650417.83, -0.0352473258972168
E4_Bvp, 1695650418.03713, 1695650418.01, -0.027130126953125
E4_Bvp, 1695650418.20901, 1695650418.19, -0.0190131664276123
E4_Bvp, 1695650418.3809, 1695650418.347, -0.0338962078094482
E4_Bvp, 1695650418.55278, 1695650418.527, -0.0257790088653564
E4_Bvp, 1695650418.72466, 1695650418.685, -0.0396621227264404
E4_Bvp, 1695650418.89654, 1695650418.865, -0.0315449237823486
E4_Bvp, 1695650419.06843, 1695650419.045, -0.0234279632568359
E4_Bvp, 1695650419.24031, 1695650419.202, -0.0383110046386719
E4_Bvp, 1695650419.41219, 1695650419.382, -0.0301938056945801
E4_Bvp, 1695650419.58408, 1695650419.563, -0.0210769176483154
E4_Bvp, 1695650419.75596, 1695650419.72, -0.0359597206115723
E4_Bvp, 1695650419.92784, 1695650419.9, -0.0278427600860596
E4_Bvp, 1695650420.09973, 1695650420.08, -0.0197257995605469
E4_Bvp, 1695650420.27161, 1695650420.237, -0.0346086025238037
E4_Bvp, 1695650420.44349, 1695650420.44, -0.00349164009094238
E4_Bvp, 1695650420.61537, 1695650420.575, -0.0403745174407959
E4_Bvp, 1695650420.78726, 1695650420.755, -0.0322575569152832
E4_Bvp, 1695650420.95914, 1695650420.935, -0.0241405963897705
E4_Bvp, 1695650421.13102, 1695650421.115, -0.0160233974456787
E4_Bvp, 1695650421.30291, 1695650421.272, -0.0309064388275146
E4_Bvp, 1695650421.47479, 1695650421.452, -0.022789478302002
E4_Bvp, 1695650421.64667, 1695650421.611, -0.0356721878051758
E4_Bvp, 1695650421.81856, 1695650421.813, -0.00555539131164551
E4_Bvp, 1695650421.99044, 1695650421.97, -0.0204381942749023
E4_Bvp, 1695650422.16232, 1695650422.127, -0.0353212356567383
E4_Bvp, 1695650422.3342, 1695650422.309, -0.0252041816711426
E4_Bvp, 1695650422.50609, 1695650422.465, -0.0410871505737305
E4_Bvp, 1695650422.67797, 1695650422.645, -0.0329701900482178
E4_Bvp, 1695650422.84985, 1695650422.825, -0.024852991104126
E4_Bvp, 1695650423.02174, 1695650422.982, -0.0397360324859619
E4_Bvp, 1695650423.19362, 1695650423.164, -0.0296189785003662
E4_Bvp, 1695650423.3655, 1695650423.342, -0.0235018730163574
E4_Bvp, 1695650423.53738, 1695650423.501, -0.0363850593566895
E4_Bvp, 1695650423.70927, 1695650423.68, -0.0292677879333496
E4_Bvp, 1695650423.88115, 1695650423.861, -0.020150899887085
E4_Bvp, 1695650424.05303, 1695650424.017, -0.0360338687896729
E4_Bvp, 1695650424.22492, 1695650424.197, -0.0279166698455811
E4_Bvp, 1695650424.3968, 1695650424.355, -0.041799783706665
E4_Bvp, 1695650424.56868, 1695650424.557, -0.0116827487945557
E4_Bvp, 1695650424.74057, 1695650424.738, -0.00256562232971191
E4_Bvp, 1695650424.91245, 1695650424.872, -0.0404486656188965
E4_Bvp, 1695650425.08433, 1695650425.052, -0.0323314666748047
E4_Bvp, 1695650425.25621, 1695650425.233, -0.02321457862854
E4_Bvp, 1695650425.4281, 1695650425.39, -0.0380973815917969
E4_Bvp, 1695650425.59998, 1695650425.57, -0.0299804210662842
E4_Bvp, 1695650425.77186, 1695650425.75, -0.0218634605407715
E4_Bvp, 1695650425.94375, 1695650425.907, -0.0367462635040283
E4_Bvp, 1695650426.11563, 1695650426.087, -0.0286295413970947
E4_Bvp, 1695650426.28751, 1695650426.291, 0.00348758697509766
E4_Bvp, 1695650426.4594, 1695650426.447, -0.0123951435089111
E4_Bvp, 1695650426.63128, 1695650426.628, -0.00327825546264648
E4_Bvp, 1695650426.80316, 1695650426.763, -0.0401611328125
E4_Bvp, 1695650426.97504, 1695650426.943, -0.0320439338684082
E4_Bvp, 1695650427.14693, 1695650427.123, -0.0239272117614746
E4_Bvp, 1695650427.31881, 1695650427.28, -0.0388100147247314
E4_Bvp, 1695650427.49069, 1695650427.46, -0.0306930541992188
E4_Bvp, 1695650427.66258, 1695650427.641, -0.021575927734375
E4_Bvp, 1695650427.83446, 1695650427.798, -0.0364587306976318
E4_Bvp, 1695650428.00634, 1695650427.978, -0.0283420085906982
E4_Bvp, 1695650428.17822, 1695650428.158, -0.0202248096466064
E4_Bvp, 1695650428.35011, 1695650428.316, -0.0341079235076904
E4_Bvp, 1695650428.52199, 1695650428.495, -0.0269908905029297
E4_Bvp, 1695650428.69387, 1695650428.653, -0.0408735275268555
E4_Bvp, 1695650428.86576, 1695650428.833, -0.0327568054199219
E4_Bvp, 1695650429.03764, 1695650429.013, -0.0246396064758301
E4_Bvp, 1695650429.20952, 1695650429.17, -0.039522647857666
E4_Bvp, 1695650429.38141, 1695650429.35, -0.0314056873321533
E4_Bvp, 1695650429.55329, 1695650429.53, -0.0232884883880615
E4_Bvp, 1695650429.72517, 1695650429.689, -0.0361716747283936
E4_Bvp, 1695650429.89705, 1695650429.868, -0.0290544033050537
E4_Bvp, 1695650430.06894, 1695650430.071, 0.00206279754638672
E4_Bvp, 1695650430.24082, 1695650430.228, -0.0128204822540283
E4_Bvp, 1695650430.4127, 1695650430.385, -0.0277032852172852
E4_Bvp, 1695650430.58459, 1695650430.565, -0.0195863246917725
E4_Bvp, 1695650430.75647, 1695650430.723, -0.0334692001342773
E4_Bvp, 1695650430.92835, 1695650430.903, -0.0253520011901855
E4_Bvp, 1695650431.10024, 1695650431.06, -0.0402352809906006
E4_Bvp, 1695650431.27212, 1695650431.24, -0.0321180820465088
E4_Bvp, 1695650431.444, 1695650431.42, -0.0240011215209961
E4_Bvp, 1695650431.61588, 1695650431.578, -0.037883996963501
E4_Bvp, 1695650431.78777, 1695650431.757, -0.0307669639587402
E4_Bvp, 1695650431.95965, 1695650431.938, -0.0216500759124756
E4_Bvp, 1695650432.13153, 1695650432.096, -0.0355329513549805
E4_Bvp, 1695650432.30342, 1695650432.275, -0.0284159183502197
E4_Bvp, 1695650432.4753, 1695650432.433, -0.0422987937927246
E4_Bvp, 1695650432.64718, 1695650432.635, -0.0121817588806152
E4_Bvp, 1695650432.81906, 1695650432.793, -0.0260648727416992
E4_Bvp, 1695650432.99095, 1695650432.95, -0.0409476757049561
E4_Bvp, 1695650433.16283, 1695650433.13, -0.0328304767608643
E4_Bvp, 1695650433.33471, 1695650433.31, -0.0247137546539307
E4_Bvp, 1695650433.5066, 1695650433.468, -0.0385966300964355
E4_Bvp, 1695650433.67848, 1695650433.648, -0.0304796695709229
E4_Bvp, 1695650433.85036, 1695650433.827, -0.0233626365661621
E4_Bvp, 1695650434.02225, 1695650433.986, -0.0362453460693359
E4_Bvp, 1695650434.19413, 1695650434.165, -0.0291285514831543
E4_Bvp, 1695650434.36601, 1695650434.324, -0.0420114994049072
E4_Bvp, 1695650434.53789, 1695650434.503, -0.0348944664001465
E4_Bvp, 1695650434.70978, 1695650434.683, -0.0267772674560547
E4_Bvp, 1695650434.88166, 1695650434.84, -0.0416603088378906
E4_Bvp, 1695650435.05354, 1695650435.02, -0.0335433483123779
E4_Bvp, 1695650435.22543, 1695650435.2, -0.0254261493682861
E4_Bvp, 1695650435.39731, 1695650435.358, -0.0393092632293701
E4_Bvp, 1695650435.56919, 1695650435.538, -0.0311920642852783
E4_Bvp, 1695650435.74108, 1695650435.717, -0.0240750312805176
E4_Bvp, 1695650435.91296, 1695650435.877, -0.0359580516815186
E4_Bvp, 1695650436.08484, 1695650436.056, -0.0288410186767578
E4_Bvp, 1695650436.25672, 1695650436.213, -0.0437238216400146
E4_Bvp, 1695650436.42861, 1695650436.393, -0.0356070995330811
E4_Bvp, 1695650436.60049, 1695650436.572, -0.0284898281097412
E4_Bvp, 1695650436.77237, 1695650436.73, -0.0423729419708252
E4_Bvp, 1695650436.94426, 1695650436.933, -0.0112557411193848
E4_Bvp, 1695650437.11614, 1695650437.09, -0.0261387825012207
E4_Bvp, 1695650437.28802, 1695650437.248, -0.0400218963623047
E4_Bvp, 1695650437.4599, 1695650437.428, -0.0319046974182129
E4_Bvp, 1695650437.63179, 1695650437.608, -0.0237877368927002
E4_Bvp, 1695650437.80367, 1695650437.765, -0.038670539855957
E4_Bvp, 1695650437.97555, 1695650437.945, -0.0305535793304443
E4_Bvp, 1695650438.14744, 1695650438.126, -0.0214366912841797
E4_Bvp, 1695650438.31932, 1695650438.283, -0.0363194942474365
E4_Bvp, 1695650438.4912, 1695650438.463, -0.0282025337219238
E4_Bvp, 1695650438.66309, 1695650438.62, -0.0430855751037598
E4_Bvp, 1695650438.83497, 1695650438.823, -0.0119683742523193
E4_Bvp, 1695650439.00685, 1695650439.003, -0.00385141372680664
E4_Bvp, 1695650439.17873, 1695650439.137, -0.0417342185974121
E4_Bvp, 1695650439.35062, 1695650439.318, -0.0326170921325684
E4_Bvp, 1695650439.5225, 1695650439.498, -0.0245003700256348
E4_Bvp, 1695650439.69438, 1695650439.657, -0.0373830795288086
E4_Bvp, 1695650439.86627, 1695650439.835, -0.0312662124633789
E4_Bvp, 1695650440.03815, 1695650440.015, -0.0231490135192871
E4_Bvp, 1695650440.21003, 1695650440.173, -0.037031888961792
E4_Bvp, 1695650440.38192, 1695650440.353, -0.0289151668548584
E4_Bvp, 1695650440.5538, 1695650440.533, -0.0207979679107666
E4_Bvp, 1695650440.72568, 1695650440.69, -0.0356810092926025
E4_Bvp, 1695650440.89756, 1695650440.916, 0.0184359550476074
E4_Bvp, 1695650441.06945, 1695650441.05, -0.019446849822998
E4_Bvp, 1695650441.24133, 1695650441.208, -0.033329963684082
E4_Bvp, 1695650441.41321, 1695650441.388, -0.0252127647399902
E4_Bvp, 1695650441.5851, 1695650441.545, -0.0400958061218262
E4_Bvp, 1695650441.75698, 1695650441.725, -0.0319788455963135
E4_Bvp, 1695650441.92886, 1695650441.905, -0.0238616466522217
E4_Bvp, 1695650442.10074, 1695650442.063, -0.0377447605133057
E4_Bvp, 1695650442.27263, 1695650442.243, -0.0296275615692139
E4_Bvp, 1695650442.44451, 1695650442.423, -0.0215103626251221
E4_Bvp, 1695650442.61639, 1695650442.604, -0.0123934745788574
E4_Bvp, 1695650442.78828, 1695650442.783, -0.00527644157409668
E4_Bvp, 1695650442.96016, 1695650442.94, -0.0201594829559326
E4_Bvp, 1695650443.13204, 1695650443.12, -0.0120425224304199
E4_Bvp, 1695650443.30393, 1695650443.278, -0.0259251594543457
E4_Bvp, 1695650443.47581, 1695650443.436, -0.0398082733154297
E4_Bvp, 1695650443.64769, 1695650443.616, -0.031691312789917
E4_Bvp, 1695650443.81957, 1695650443.795, -0.0245742797851563
E4_Bvp, 1695650443.99146, 1695650443.953, -0.0384571552276611
E4_Bvp, 1695650444.16334, 1695650444.133, -0.0303401947021484
E4_Bvp, 1695650444.33522, 1695650444.291, -0.0442233085632324
E4_Bvp, 1695650444.50711, 1695650444.493, -0.0141060352325439
E4_Bvp, 1695650444.67899, 1695650444.65, -0.0289888381958008
E4_Bvp, 1695650444.85087, 1695650444.808, -0.0428719520568848
E4_Bvp, 1695650445.02275, 1695650445.01, -0.0127549171447754
E4_Bvp, 1695650445.19464, 1695650445.19, -0.0046379566192627
E4_Bvp, 1695650445.36652, 1695650445.325, -0.0415208339691162
E4_Bvp, 1695650445.5384, 1695650445.505, -0.0334036350250244
E4_Bvp, 1695650445.71029, 1695650445.708, -0.00228691101074219
E4_Bvp, 1695650445.88217, 1695650445.843, -0.0391697883605957
E4_Bvp, 1695650446.05405, 1695650446.023, -0.031052827835083
E4_Bvp, 1695650446.22594, 1695650446.181, -0.0449357032775879
E4_Bvp, 1695650446.39782, 1695650446.361, -0.0368185043334961
E4_Bvp, 1695650446.5697, 1695650446.541, -0.0287017822265625
E4_Bvp, 1695650446.74158, 1695650446.698, -0.0435845851898193
E4_Bvp, 1695650446.91347, 1695650446.878, -0.0354676246643066
E4_Bvp, 1695650447.08535, 1695650447.08, -0.00535058975219727
E4_Bvp, 1695650447.25723, 1695650447.215, -0.0422334671020508
E4_Bvp, 1695650447.42912, 1695650447.395, -0.0341165065765381
E4_Bvp, 1695650447.601, 1695650447.575, -0.0259993076324463
E4_Bvp, 1695650447.77288, 1695650447.733, -0.0398821830749512
E4_Bvp, 1695650447.94477, 1695650447.914, -0.0307652950286865
E4_Bvp, 1695650448.11665, 1695650448.07, -0.0466482639312744
E4_Bvp, 1695650448.28853, 1695650448.251, -0.0375313758850098
E4_Bvp, 1695650448.46041, 1695650448.431, -0.029414176940918
E4_Bvp, 1695650448.6323, 1695650448.588, -0.0442969799041748
E4_Bvp, 1695650448.80418, 1695650448.814, 0.00981974601745605
E4_Bvp, 1695650448.97606, 1695650448.948, -0.0280630588531494
E4_Bvp, 1695650449.14795, 1695650449.128, -0.0199460983276367
E4_Bvp, 1695650449.31983, 1695650449.308, -0.0118288993835449
E4_Bvp, 1695650449.49171, 1695650449.488, -0.00371193885803223
E4_Bvp, 1695650449.66359, 1695650449.623, -0.0405950546264648
E4_Bvp, 1695650449.83548, 1695650449.803, -0.032477855682373
E4_Bvp, 1695650450.00736, 1695650449.983, -0.0243608951568604
E4_Bvp, 1695650450.17924, 1695650450.141, -0.0382437705993652
E4_Bvp, 1695650450.35113, 1695650450.32, -0.0311267375946045
E4_Bvp, 1695650450.52301, 1695650450.478, -0.0450098514556885
E4_Bvp, 1695650450.69489, 1695650450.658, -0.0368926525115967
E4_Bvp, 1695650450.86678, 1695650450.861, -0.00577545166015625
E4_Bvp, 1695650451.03866, 1695650450.996, -0.0426585674285889
E4_Bvp, 1695650451.21054, 1695650451.175, -0.0355415344238281
E4_Bvp, 1695650451.38242, 1695650451.378, -0.0044245719909668
E4_Bvp, 1695650451.55431, 1695650451.513, -0.0413074493408203
E4_Bvp, 1695650451.72619, 1695650451.693, -0.0331902503967285
E4_Bvp, 1695650451.89807, 1695650451.873, -0.0250735282897949
E4_Bvp, 1695650452.06996, 1695650452.03, -0.0399563312530518
E4_Bvp, 1695650452.24184, 1695650452.21, -0.0318393707275391
E4_Bvp, 1695650452.41372, 1695650452.369, -0.044722318649292
E4_Bvp, 1695650452.58561, 1695650452.549, -0.0366051197052002
E4_Bvp, 1695650452.75749, 1695650452.729, -0.0284881591796875
E4_Bvp, 1695650452.92937, 1695650452.908, -0.0213711261749268
E4_Bvp, 1695650453.10125, 1695650453.065, -0.0362541675567627
E4_Bvp, 1695650453.27314, 1695650453.245, -0.02813720703125
E4_Bvp, 1695650453.44502, 1695650453.425, -0.0200200080871582
E4_Bvp, 1695650453.6169, 1695650453.583, -0.0339031219482422
E4_Bvp, 1695650453.78879, 1695650453.763, -0.0257859230041504
E4_Bvp, 1695650453.96067, 1695650453.92, -0.0406687259674072
E4_Bvp, 1695650454.13255, 1695650454.101, -0.0315518379211426
E4_Bvp, 1695650454.30443, 1695650454.258, -0.0464348793029785
E4_Bvp, 1695650454.47632, 1695650454.438, -0.0383179187774658
E4_Bvp, 1695650454.6482, 1695650454.619, -0.0292007923126221
E4_Bvp, 1695650454.82008, 1695650454.776, -0.0440835952758789
E4_Bvp, 1695650454.99197, 1695650454.955, -0.0369668006896973
E4_Bvp, 1695650455.16385, 1695650455.135, -0.0288496017456055
E4_Bvp, 1695650455.33573, 1695650455.315, -0.0207326412200928
E4_Bvp, 1695650455.50762, 1695650455.496, -0.011615514755249
E4_Bvp, 1695650455.6795, 1695650455.675, -0.00449848175048828
E4_Bvp, 1695650455.85138, 1695650455.81, -0.0413815975189209
E4_Bvp, 1695650456.02326, 1695650455.99, -0.0332643985748291
E4_Bvp, 1695650456.19515, 1695650456.149, -0.0461475849151611
E4_Bvp, 1695650456.36703, 1695650456.328, -0.0390303134918213
E4_Bvp, 1695650456.53891, 1695650456.508, -0.0309133529663086
E4_Bvp, 1695650456.7108, 1695650456.666, -0.0447964668273926
E4_Bvp, 1695650456.88268, 1695650456.869, -0.0136792659759521
E4_Bvp, 1695650457.05456, 1695650457.026, -0.028562068939209
E4_Bvp, 1695650457.22645, 1695650457.205, -0.0214452743530273
E4_Bvp, 1695650457.39833, 1695650457.385, -0.0133280754089355
E4_Bvp, 1695650457.57021, 1695650457.566, -0.0042111873626709
E4_Bvp, 1695650457.74209, 1695650457.7, -0.0420939922332764
E4_Bvp, 1695650457.91398, 1695650457.88, -0.0339767932891846
E4_Bvp, 1695650458.08586, 1695650458.061, -0.0248599052429199
E4_Bvp, 1695650458.25774, 1695650458.218, -0.0397429466247559
E4_Bvp, 1695650458.42963, 1695650458.398, -0.0316259860992432
E4_Bvp, 1695650458.60151, 1695650458.557, -0.0445089340209961
E4_Bvp, 1695650458.77339, 1695650458.736, -0.0373916625976563
E4_Bvp, 1695650458.94527, 1695650458.916, -0.0292749404907227
E4_Bvp, 1695650459.11716, 1695650459.073, -0.0441577434539795
E4_Bvp, 1695650459.28904, 1695650459.276, -0.0130405426025391
E4_Bvp, 1695650459.46092, 1695650459.433, -0.027923583984375
E4_Bvp, 1695650459.63281, 1695650459.613, -0.0198066234588623
E4_Bvp, 1695650459.80469, 1695650459.77, -0.0346896648406982
E4_Bvp, 1695650459.97657, 1695650459.973, -0.00357246398925781
E4_Bvp, 1695650460.14846, 1695650460.108, -0.0404553413391113
E4_Bvp, 1695650460.32034, 1695650460.289, -0.0313384532928467
E4_Bvp, 1695650460.49222, 1695650460.445, -0.0472214221954346
E4_Bvp, 1695650460.6641, 1695650460.626, -0.0381045341491699
E4_Bvp, 1695650460.83599, 1695650460.807, -0.0289874076843262
E4_Bvp, 1695650461.00787, 1695650460.963, -0.044870138168335
E4_Bvp, 1695650461.17975, 1695650461.143, -0.0367534160614014
E4_Bvp, 1695650461.35164, 1695650461.323, -0.0286362171173096
E4_Bvp, 1695650461.52352, 1695650461.503, -0.0205192565917969
E4_Bvp, 1695650461.6954, 1695650461.683, -0.0124020576477051
E4_Bvp, 1695650461.86729, 1695650461.863, -0.00428509712219238
E4_Bvp, 1695650462.03917, 1695650462.02, -0.0191681385040283
E4_Bvp, 1695650462.21105, 1695650462.178, -0.0330510139465332
E4_Bvp, 1695650462.38293, 1695650462.336, -0.0469338893890381
E4_Bvp, 1695650462.55482, 1695650462.516, -0.0388169288635254
E4_Bvp, 1695650462.7267, 1695650462.696, -0.0306997299194336
E4_Bvp, 1695650462.89858, 1695650462.853, -0.0455830097198486
E4_Bvp, 1695650463.07047, 1695650463.056, -0.0144658088684082
E4_Bvp, 1695650463.24235, 1695650463.213, -0.029348611831665
E4_Bvp, 1695650463.41423, 1695650463.371, -0.043231725692749
E4_Bvp, 1695650463.58611, 1695650463.551, -0.0351145267486572
E4_Bvp, 1695650463.758, 1695650463.731, -0.0269978046417236
E4_Bvp, 1695650463.92988, 1695650463.888, -0.0418806076049805
E4_Bvp, 1695650464.10176, 1695650464.068, -0.0337634086608887
E4_Bvp, 1695650464.27365, 1695650464.226, -0.0476465225219727
E4_Bvp, 1695650464.44553, 1695650464.406, -0.03952956199646
E4_Bvp, 1695650464.61741, 1695650464.586, -0.0314126014709473
E4_Bvp, 1695650464.7893, 1695650464.744, -0.0452954769134521
E4_Bvp, 1695650464.96118, 1695650464.924, -0.0371782779693604
E4_Bvp, 1695650465.13306, 1695650465.104, -0.0290613174438477
E4_Bvp, 1695650465.30494, 1695650465.283, -0.0219442844390869
E4_Bvp, 1695650465.47683, 1695650465.441, -0.0358271598815918
E4_Bvp, 1695650465.64871, 1695650465.621, -0.0277101993560791
E4_Bvp, 1695650465.82059, 1695650465.8, -0.0205931663513184
E4_Bvp, 1695650465.99248, 1695650465.958, -0.0344762802124023
E4_Bvp, 1695650466.16436, 1695650466.138, -0.0263590812683105
E4_Bvp, 1695650466.33624, 1695650466.297, -0.0392420291900635
E4_Bvp, 1695650466.50813, 1695650466.476, -0.0321249961853027
E4_Bvp, 1695650466.68001, 1695650466.633, -0.0470080375671387
E4_Bvp, 1695650466.85189, 1695650466.835, -0.0168910026550293
E4_Bvp, 1695650467.02377, 1695650466.994, -0.0297739505767822
E4_Bvp, 1695650467.19566, 1695650467.151, -0.0446567535400391
E4_Bvp, 1695650467.36754, 1695650467.331, -0.0365397930145264
E4_Bvp, 1695650467.53942, 1695650467.511, -0.0284228324890137
E4_Bvp, 1695650467.71131, 1695650467.668, -0.0433058738708496
E4_Bvp, 1695650467.88319, 1695650467.893, 0.0098111629486084
E4_Bvp, 1695650468.05507, 1695650468.028, -0.027071475982666
E4_Bvp, 1695650468.22695, 1695650468.186, -0.04095458984375
E4_Bvp, 1695650468.39884, 1695650468.366, -0.0328376293182373
E4_Bvp, 1695650468.57072, 1695650468.523, -0.0477204322814941
E4_Bvp, 1695650468.7426, 1695650468.726, -0.0166034698486328
E4_Bvp, 1695650468.91449, 1695650468.884, -0.0304863452911377
E4_Bvp, 1695650469.08637, 1695650469.041, -0.0453696250915527
E4_Bvp, 1695650469.25825, 1695650469.221, -0.0372524261474609
E4_Bvp, 1695650469.43014, 1695650469.401, -0.0291352272033691
E4_Bvp, 1695650469.60202, 1695650469.558, -0.0440182685852051
E4_Bvp, 1695650469.7739, 1695650469.738, -0.0359013080596924
E4_Bvp, 1695650469.94578, 1695650469.941, -0.00478434562683105
E4_Bvp, 1695650470.11767, 1695650470.098, -0.0196671485900879
E4_Bvp, 1695650470.28955, 1695650470.256, -0.0335500240325928
E4_Bvp, 1695650470.46143, 1695650470.413, -0.0484330654144287
E4_Bvp, 1695650470.63332, 1695650470.593, -0.040316104888916
E4_Bvp, 1695650470.8052, 1695650470.773, -0.0321991443634033
E4_Bvp, 1695650470.97708, 1695650470.932, -0.0450820922851563
E4_Bvp, 1695650471.14896, 1695650471.111, -0.0379648208618164
E4_Bvp, 1695650471.32085, 1695650471.291, -0.0298480987548828
E4_Bvp, 1695650471.49273, 1695650471.448, -0.0447309017181396
E4_Bvp, 1695650471.66461, 1695650471.628, -0.0366137027740479
E4_Bvp, 1695650471.8365, 1695650471.808, -0.0284967422485352
E4_Bvp, 1695650472.00838, 1695650471.989, -0.0193796157836914
E4_Bvp, 1695650472.18026, 1695650472.146, -0.0342628955841064
E4_Bvp, 1695650472.35215, 1695650472.303, -0.0491456985473633
E4_Bvp, 1695650472.52403, 1695650472.483, -0.0410284996032715
E4_Bvp, 1695650472.69591, 1695650472.663, -0.0329115390777588
E4_Bvp, 1695650472.86779, 1695650472.843, -0.0247945785522461
E4_Bvp, 1695650473.03968, 1695650473.001, -0.0386776924133301
E4_Bvp, 1695650473.21156, 1695650473.181, -0.0305604934692383
E4_Bvp, 1695650473.38344, 1695650473.338, -0.0454432964324951
E4_Bvp, 1695650473.55533, 1695650473.518, -0.0373265743255615
E4_Bvp, 1695650473.72721, 1695650473.721, -0.00620937347412109
E4_Bvp, 1695650473.89909, 1695650473.9, 0.00090789794921875
E4_Bvp, 1695650474.07098, 1695650474.058, -0.0129752159118652
E4_Bvp, 1695650474.24286, 1695650474.238, -0.00485825538635254
E4_Bvp, 1695650474.41474, 1695650474.373, -0.0417413711547852
E4_Bvp, 1695650474.58662, 1695650474.554, -0.0326242446899414
E4_Bvp, 1695650474.75851, 1695650474.711, -0.0475070476531982
E4_Bvp, 1695650474.93039, 1695650474.891, -0.0393900871276855
E4_Bvp, 1695650475.10227, 1695650475.071, -0.0312728881835938
E4_Bvp, 1695650475.27416, 1695650475.228, -0.0461561679840088
E4_Bvp, 1695650475.44604, 1695650475.408, -0.038038969039917
E4_Bvp, 1695650475.61792, 1695650475.588, -0.0299217700958252
E4_Bvp, 1695650475.7898, 1695650475.746, -0.0438048839569092
E4_Bvp, 1695650475.96169, 1695650475.948, -0.0136878490447998
E4_Bvp, 1695650476.13357, 1695650476.106, -0.0275709629058838
E4_Bvp, 1695650476.30545, 1695650476.264, -0.0414538383483887
E4_Bvp, 1695650476.47734, 1695650476.443, -0.0343365669250488
E4_Bvp, 1695650476.64922, 1695650476.601, -0.0482196807861328
E4_Bvp, 1695650476.8211, 1695650476.781, -0.0401027202606201
E4_Bvp, 1695650476.99299, 1695650476.961, -0.0319855213165283
E4_Bvp, 1695650477.16487, 1695650477.119, -0.0458686351776123
E4_Bvp, 1695650477.33675, 1695650477.299, -0.0377514362335205
E4_Bvp, 1695650477.50863, 1695650477.479, -0.0296344757080078
E4_Bvp, 1695650477.68052, 1695650477.636, -0.0445175170898438
E4_Bvp, 1695650477.8524, 1695650477.816, -0.036400318145752
E4_Bvp, 1695650478.02428, 1695650478.018, -0.00628352165222168
E4_Bvp, 1695650478.19617, 1695650478.176, -0.0201661586761475
E4_Bvp, 1695650478.36805, 1695650478.333, -0.0350494384765625
E4_Bvp, 1695650478.53993, 1695650478.513, -0.0269322395324707
E4_Bvp, 1695650478.71182, 1695650478.671, -0.0408151149749756
E4_Bvp, 1695650478.8837, 1695650478.851, -0.0326981544494629
E4_Bvp, 1695650479.05558, 1695650479.008, -0.0475811958312988
E4_Bvp, 1695650479.22746, 1695650479.211, -0.0164642333984375
E4_Bvp, 1695650479.39935, 1695650479.369, -0.0303471088409424
E4_Bvp, 1695650479.57123, 1695650479.526, -0.0452299118041992
E4_Bvp, 1695650479.74311, 1695650479.706, -0.0371129512786865
E4_Bvp, 1695650479.915, 1695650479.886, -0.0289959907531738
E4_Bvp, 1695650480.08688, 1695650480.066, -0.020878791809082
E4_Bvp, 1695650480.25876, 1695650480.223, -0.035761833190918
E4_Bvp, 1695650480.43064, 1695650480.403, -0.0276446342468262
E4_Bvp, 1695650480.60253, 1695650480.561, -0.0415277481079102
E4_Bvp, 1695650480.77441, 1695650480.741, -0.0334107875823975
E4_Bvp, 1695650480.94629, 1695650480.898, -0.0482935905456543
E4_Bvp, 1695650481.11818, 1695650481.079, -0.0391767024993896
E4_Bvp, 1695650481.29006, 1695650481.258, -0.0320596694946289
E4_Bvp, 1695650481.46194, 1695650481.416, -0.0459427833557129
E4_Bvp, 1695650481.63383, 1695650481.596, -0.0378255844116211
E4_Bvp, 1695650481.80571, 1695650481.776, -0.0297083854675293
E4_Bvp, 1695650481.97759, 1695650481.933, -0.0445914268493652
E4_Bvp, 1695650482.14947, 1695650482.113, -0.0364744663238525
E4_Bvp, 1695650482.32136, 1695650482.294, -0.0273575782775879
E4_Bvp, 1695650482.49324, 1695650482.451, -0.0422403812408447
E4_Bvp, 1695650482.66512, 1695650482.631, -0.0341231822967529
E4_Bvp, 1695650482.83701, 1695650482.788, -0.0490062236785889
E4_Bvp, 1695650483.00889, 1695650482.968, -0.0408892631530762
E4_Bvp, 1695650483.18077, 1695650483.149, -0.0317721366882324
E4_Bvp, 1695650483.35266, 1695650483.307, -0.0456552505493164
E4_Bvp, 1695650483.52454, 1695650483.487, -0.0375380516052246
E4_Bvp, 1695650483.69642, 1695650483.667, -0.0294210910797119
E4_Bvp, 1695650483.8683, 1695650483.823, -0.0453040599822998
E4_Bvp, 1695650484.04019, 1695650484.003, -0.037186861038208
E4_Bvp, 1695650484.21207, 1695650484.183, -0.0290699005126953
E4_Bvp, 1695650484.38395, 1695650484.341, -0.0429527759552002
E4_Bvp, 1695650484.55584, 1695650484.543, -0.0128359794616699
E4_Bvp, 1695650484.72772, 1695650484.679, -0.0487189292907715
E4_Bvp, 1695650484.8996, 1695650484.858, -0.0416016578674316
E4_Bvp, 1695650485.07148, 1695650485.038, -0.0334846973419189
E4_Bvp, 1695650485.24337, 1695650485.196, -0.0473675727844238
E4_Bvp, 1695650485.41525, 1695650485.377, -0.0382506847381592
E4_Bvp, 1695650485.58713, 1695650485.557, -0.0301337242126465
E4_Bvp, 1695650485.75902, 1695650485.713, -0.0460164546966553
E4_Bvp, 1695650485.9309, 1695650485.893, -0.0378997325897217
E4_Bvp, 1695650486.10278, 1695650486.073, -0.0297825336456299
E4_Bvp, 1695650486.27467, 1695650486.231, -0.0436654090881348
E4_Bvp, 1695650486.44655, 1695650486.433, -0.0135483741760254
E4_Bvp, 1695650486.61843, 1695650486.569, -0.049431324005127
E4_Bvp, 1695650486.79031, 1695650486.749, -0.0413143634796143
E4_Bvp, 1695650486.9622, 1695650486.929, -0.0331974029541016
E4_Bvp, 1695650487.13408, 1695650487.086, -0.0480802059173584
E4_Bvp, 1695650487.30596, 1695650487.266, -0.0399632453918457
E4_Bvp, 1695650487.47785, 1695650487.446, -0.0318460464477539
E4_Bvp, 1695650487.64973, 1695650487.604, -0.0457291603088379
E4_Bvp, 1695650487.82161, 1695650487.783, -0.0386121273040771
E4_Bvp, 1695650487.99349, 1695650487.987, -0.00649499893188477
E4_Bvp, 1695650488.16538, 1695650488.121, -0.0443780422210693
E4_Bvp, 1695650488.33726, 1695650488.302, -0.0352609157562256
E4_Bvp, 1695650488.50914, 1695650488.458, -0.0511438846588135
E4_Bvp, 1695650488.68103, 1695650488.639, -0.0420269966125488
E4_Bvp, 1695650488.85291, 1695650488.818, -0.034909725189209
E4_Bvp, 1695650489.02479, 1695650488.998, -0.0267930030822754
E4_Bvp, 1695650489.19668, 1695650489.156, -0.0406758785247803
E4_Bvp, 1695650489.36856, 1695650489.336, -0.0325586795806885
E4_Bvp, 1695650489.54044, 1695650489.495, -0.0454418659210205
E4_Bvp, 1695650489.71232, 1695650489.674, -0.0383245944976807
E4_Bvp, 1695650489.88421, 1695650489.854, -0.030207633972168
E4_Bvp, 1695650490.05609, 1695650490.033, -0.0230906009674072
E4_Bvp, 1695650490.22797, 1695650490.213, -0.0149734020233154
E4_Bvp, 1695650490.39986, 1695650490.371, -0.0288565158843994
E4_Bvp, 1695650490.57174, 1695650490.551, -0.0207393169403076
E4_Bvp, 1695650490.74362, 1695650490.709, -0.0346224308013916
E4_Bvp, 1695650490.91551, 1695650490.866, -0.0495054721832275
E4_Bvp, 1695650491.08739, 1695650491.046, -0.0413882732391357
E4_Bvp, 1695650491.25927, 1695650491.226, -0.033271312713623
E4_Bvp, 1695650491.43115, 1695650491.384, -0.0471541881561279
E4_Bvp, 1695650491.60304, 1695650491.564, -0.0390372276306152
E4_Bvp, 1695650491.77492, 1695650491.744, -0.0309202671051025
E4_Bvp, 1695650491.9468, 1695650491.924, -0.0228030681610107
E4_Bvp, 1695650492.11869, 1695650492.081, -0.0376861095428467
E4_Bvp, 1695650492.29057, 1695650492.261, -0.029569149017334
E4_Bvp, 1695650492.46245, 1695650492.441, -0.0214519500732422
E4_Bvp, 1695650492.63434, 1695650492.644, 0.00966501235961914
E4_Bvp, 1695650492.80622, 1695650492.756, -0.050217866897583
E4_Bvp, 1695650492.9781, 1695650492.936, -0.0421009063720703
E4_Bvp, 1695650493.14998, 1695650493.116, -0.0339839458465576
E4_Bvp, 1695650493.32187, 1695650493.274, -0.0478668212890625
E4_Bvp, 1695650493.49375, 1695650493.454, -0.0397498607635498
E4_Bvp, 1695650493.66563, 1695650493.635, -0.0306327342987061
E4_Bvp, 1695650493.83752, 1695650493.791, -0.046515941619873
E4_Bvp, 1695650494.0094, 1695650493.971, -0.0383987426757813
E4_Bvp, 1695650494.18128, 1695650494.129, -0.0522816181182861
E4_Bvp, 1695650494.35316, 1695650494.31, -0.0431647300720215
E4_Bvp, 1695650494.52505, 1695650494.489, -0.0360474586486816
E4_Bvp, 1695650494.69693, 1695650494.646, -0.0509305000305176
E4_Bvp, 1695650494.86881, 1695650494.826, -0.0428135395050049
E4_Bvp, 1695650495.0407, 1695650495.006, -0.0346963405609131
E4_Bvp, 1695650495.21258, 1695650495.163, -0.049579381942749
E4_Bvp, 1695650495.38446, 1695650495.366, -0.0184624195098877
E4_Bvp, 1695650495.55635, 1695650495.524, -0.0323452949523926
E4_Bvp, 1695650495.72823, 1695650495.705, -0.0232284069061279
E4_Bvp, 1695650495.90011, 1695650495.862, -0.0381112098693848
E4_Bvp, 1695650496.07199, 1695650496.042, -0.0299942493438721
E4_Bvp, 1695650496.24388, 1695650496.199, -0.044877290725708
E4_Bvp, 1695650496.41576, 1695650496.379, -0.0367600917816162
E4_Bvp, 1695650496.58764, 1695650496.559, -0.0286431312561035
E4_Bvp, 1695650496.75953, 1695650496.716, -0.0435259342193604
E4_Bvp, 1695650496.93141, 1695650496.896, -0.0354092121124268
E4_Bvp, 1695650497.10329, 1695650497.054, -0.0492920875549316
E4_Bvp, 1695650497.27517, 1695650497.234, -0.0411748886108398
E4_Bvp, 1695650497.44706, 1695650497.414, -0.0330579280853271
E4_Bvp, 1695650497.61894, 1695650497.571, -0.047940731048584
E4_Bvp, 1695650497.79082, 1695650497.751, -0.0398237705230713
E4_Bvp, 1695650497.96271, 1695650497.932, -0.0307068824768066
E4_Bvp, 1695650498.13459, 1695650498.088, -0.0465896129608154
E4_Bvp, 1695650498.30647, 1695650498.269, -0.0374727249145508
E4_Bvp, 1695650498.47836, 1695650498.426, -0.0523555278778076
E4_Bvp, 1695650498.65024, 1695650498.651, 0.000761508941650391
E4_Bvp, 1695650498.82212, 1695650498.808, -0.0141215324401855
E4_Bvp, 1695650498.994, 1695650498.944, -0.0500044822692871
E4_Bvp, 1695650499.16589, 1695650499.124, -0.0418875217437744
E4_Bvp, 1695650499.33777, 1695650499.304, -0.0337705612182617
E4_Bvp, 1695650499.50965, 1695650499.461, -0.0486533641815186
E4_Bvp, 1695650499.68154, 1695650499.642, -0.0395364761352539
E4_Bvp, 1695650499.85342, 1695650499.821, -0.0324192047119141
E4_Bvp, 1695650500.0253, 1695650499.979, -0.046302318572998
E4_Bvp, 1695650500.19719, 1695650500.159, -0.0381853580474854
E4_Bvp, 1695650500.36907, 1695650500.317, -0.0520682334899902
E4_Bvp, 1695650500.54095, 1695650500.496, -0.0449512004852295
E4_Bvp, 1695650500.71283, 1695650500.676, -0.0368340015411377
E4_Bvp, 1695650500.88472, 1695650500.856, -0.028717041015625
E4_Bvp, 1695650501.0566, 1695650501.014, -0.042600154876709
E4_Bvp, 1695650501.22848, 1695650501.194, -0.0344829559326172
E4_Bvp, 1695650501.40037, 1695650501.351, -0.0493659973144531
E4_Bvp, 1695650501.57225, 1695650501.531, -0.0412490367889404
E4_Bvp, 1695650501.74413, 1695650501.711, -0.0331318378448486
E4_Bvp, 1695650501.91601, 1695650501.868, -0.0480148792266846
E4_Bvp, 1695650502.0879, 1695650502.05, -0.0378978252410889
E4_Bvp, 1695650502.25978, 1695650502.229, -0.0307807922363281
E4_Bvp, 1695650502.43166, 1695650502.409, -0.0226638317108154
E4_Bvp, 1695650502.60355, 1695650502.566, -0.0375466346740723
E4_Bvp, 1695650502.77543, 1695650502.724, -0.0514297485351563
E4_Bvp, 1695650502.94731, 1695650502.926, -0.0213124752044678
E4_Bvp, 1695650503.1192, 1695650503.084, -0.0351955890655518
E4_Bvp, 1695650503.29108, 1695650503.241, -0.0500786304473877
E4_Bvp, 1695650503.46296, 1695650503.421, -0.0419614315032959
E4_Bvp, 1695650503.63484, 1695650503.601, -0.0338444709777832
E4_Bvp, 1695650503.80673, 1695650503.76, -0.0467274188995361
E4_Bvp, 1695650503.97861, 1695650503.939, -0.0396103858947754
E4_Bvp, 1695650504.15049, 1695650504.119, -0.0314934253692627
E4_Bvp, 1695650504.32238, 1695650504.3, -0.0223762989044189
E4_Bvp, 1695650504.49426, 1695650504.456, -0.0382592678070068
E4_Bvp, 1695650504.66614, 1695650504.614, -0.0521421432495117
E4_Bvp, 1695650504.83803, 1695650504.816, -0.0220251083374023
E4_Bvp, 1695650505.00991, 1695650504.996, -0.0139081478118896
E4_Bvp, 1695650505.18179, 1695650505.131, -0.0507910251617432
E4_Bvp, 1695650505.35367, 1695650505.311, -0.0426740646362305
E4_Bvp, 1695650505.52556, 1695650505.491, -0.0345571041107178
E4_Bvp, 1695650505.69744, 1695650505.65, -0.0474398136138916
E4_Bvp, 1695650505.86932, 1695650505.828, -0.0413229465484619
E4_Bvp, 1695650506.04121, 1695650506.009, -0.0322058200836182
E4_Bvp, 1695650506.21309, 1695650506.189, -0.0240888595581055
E4_Bvp, 1695650506.38497, 1695650506.347, -0.0379719734191895
E4_Bvp, 1695650506.55685, 1695650506.526, -0.0308547019958496
E4_Bvp, 1695650506.72874, 1695650506.684, -0.0447378158569336
E4_Bvp, 1695650506.90062, 1695650506.864, -0.0366206169128418
E4_Bvp, 1695650507.0725, 1695650507.021, -0.0515036582946777
E4_Bvp, 1695650507.24439, 1695650507.201, -0.043386697769165
E4_Bvp, 1695650507.41627, 1695650507.381, -0.0352694988250732
E4_Bvp, 1695650507.58815, 1695650507.539, -0.0491526126861572
E4_Bvp, 1695650507.76004, 1695650507.719, -0.0410354137420654
E4_Bvp, 1695650507.93192, 1695650507.898, -0.0339183807373047
E4_Bvp, 1695650508.1038, 1695650508.056, -0.0478014945983887
E4_Bvp, 1695650508.27568, 1695650508.237, -0.0386843681335449
E4_Bvp, 1695650508.44757, 1695650508.417, -0.0305674076080322
E4_Bvp, 1695650508.61945, 1695650508.574, -0.0454504489898682
E4_Bvp, 1695650508.79133, 1695650508.776, -0.0153331756591797
E4_Bvp, 1695650508.96322, 1695650508.934, -0.0292162895202637
E4_Bvp, 1695650509.1351, 1695650509.114, -0.0210990905761719
E4_Bvp, 1695650509.30698, 1695650509.271, -0.0359821319580078
E4_Bvp, 1695650509.47887, 1695650509.428, -0.0508651733398438
E4_Bvp, 1695650509.65075, 1695650509.609, -0.041748046875
E4_Bvp, 1695650509.82263, 1695650509.789, -0.0336310863494873
E4_Bvp, 1695650509.99451, 1695650509.946, -0.0485138893127441
E4_Bvp, 1695650510.1664, 1695650510.126, -0.0403969287872314
E4_Bvp, 1695650510.33828, 1695650510.285, -0.0532798767089844
E4_Bvp, 1695650510.51016, 1695650510.464, -0.0461628437042236
E4_Bvp, 1695650510.68205, 1695650510.644, -0.0380458831787109
E4_Bvp, 1695650510.85393, 1695650510.801, -0.0529286861419678
E4_Bvp, 1695650511.02581, 1695650511.004, -0.0218117237091064
E4_Bvp, 1695650511.19769, 1695650511.184, -0.0136947631835938
E4_Bvp, 1695650511.36958, 1695650511.319, -0.0505776405334473
E4_Bvp, 1695650511.54146, 1695650511.499, -0.0424606800079346
E4_Bvp, 1695650511.71334, 1695650511.679, -0.0343437194824219
E4_Bvp, 1695650511.88523, 1695650511.836, -0.0492265224456787
E4_Bvp, 1695650512.05711, 1695650512.016, -0.041109561920166
E4_Bvp, 1695650512.22899, 1695650512.175, -0.0539925098419189
E4_Bvp, 1695650512.40088, 1695650512.354, -0.0468752384185791
E4_Bvp, 1695650512.57276, 1695650512.535, -0.0377583503723145
E4_Bvp, 1695650512.74464, 1695650512.692, -0.0526413917541504
E4_Bvp, 1695650512.91652, 1695650512.871, -0.0455243587493896
E4_Bvp, 1695650513.08841, 1695650513.051, -0.0374071598052979
E4_Bvp, 1695650513.26029, 1695650513.209, -0.0512900352478027
E4_Bvp, 1695650513.43217, 1695650513.389, -0.0431733131408691
E4_Bvp, 1695650513.60406, 1695650513.569, -0.0350561141967773
E4_Bvp, 1695650513.77594, 1695650513.726, -0.0499391555786133
E4_Bvp, 1695650513.94782, 1695650513.906, -0.0418221950531006
E4_Bvp, 1695650514.1197, 1695650514.086, -0.0337049961090088
E4_Bvp, 1695650514.29159, 1695650514.244, -0.0475881099700928
E4_Bvp, 1695650514.46347, 1695650514.425, -0.038470983505249
E4_Bvp, 1695650514.63535, 1695650514.581, -0.0543539524078369
E4_Bvp, 1695650514.80724, 1695650514.785, -0.0222368240356445
E4_Bvp, 1695650514.97912, 1695650514.941, -0.0381197929382324
E4_Bvp, 1695650515.151, 1695650515.121, -0.0300028324127197
E4_Bvp, 1695650515.32289, 1695650515.279, -0.0438857078552246
E4_Bvp, 1695650515.49477, 1695650515.481, -0.0137686729431152
E4_Bvp, 1695650515.66665, 1695650515.616, -0.0506517887115479
E4_Bvp, 1695650515.83853, 1695650515.819, -0.0195345878601074
E4_Bvp, 1695650516.01042, 1695650515.976, -0.0344176292419434
E4_Bvp, 1695650516.1823, 1695650516.135, -0.0473005771636963
E4_Bvp, 1695650516.35418, 1695650516.317, -0.0371835231781006
E4_Bvp, 1695650516.52607, 1695650516.471, -0.0550665855407715
E4_Bvp, 1695650516.69795, 1695650516.675, -0.0229494571685791
E4_Bvp, 1695650516.86983, 1695650516.831, -0.038832426071167
E4_Bvp, 1695650517.04172, 1695650516.989, -0.0527153015136719
E4_Bvp, 1695650517.2136, 1695650517.191, -0.0225982666015625
E4_Bvp, 1695650517.38548, 1695650517.371, -0.0144813060760498
E4_Bvp, 1695650517.55736, 1695650517.506, -0.0513641834259033
E4_Bvp, 1695650517.72925, 1695650517.686, -0.0432472229003906
E4_Bvp, 1695650517.90113, 1695650517.866, -0.0351302623748779
E4_Bvp, 1695650518.07301, 1695650518.024, -0.0490131378173828
E4_Bvp, 1695650518.2449, 1695650518.204, -0.0408961772918701
E4_Bvp, 1695650518.41678, 1695650518.363, -0.053779125213623
E4_Bvp, 1695650518.58866, 1695650518.543, -0.0456619262695313
E4_Bvp, 1695650518.76055, 1695650518.722, -0.0385451316833496
E4_Bvp, 1695650518.93243, 1695650518.88, -0.0524277687072754
E4_Bvp, 1695650519.10431, 1695650519.059, -0.0453109741210938
E4_Bvp, 1695650519.27619, 1695650519.239, -0.037193775177002
E4_Bvp, 1695650519.44808, 1695650519.419, -0.0290768146514893
E4_Bvp, 1695650519.61996, 1695650519.577, -0.0429599285125732
E4_Bvp, 1695650519.79184, 1695650519.756, -0.0358426570892334
E4_Bvp, 1695650519.96373, 1695650519.914, -0.0497257709503174
E4_Bvp, 1695650520.13561, 1695650520.094, -0.0416085720062256
E4_Bvp, 1695650520.30749, 1695650520.251, -0.0564916133880615
E4_Bvp, 1695650520.47937, 1695650520.432, -0.0473747253417969
E4_Bvp, 1695650520.65126, 1695650520.612, -0.0392575263977051
E4_Bvp, 1695650520.82314, 1695650520.769, -0.0541403293609619
E4_Bvp, 1695650520.99502, 1695650520.949, -0.0460236072540283
E4_Bvp, 1695650521.16691, 1695650521.129, -0.0379064083099365
E4_Bvp, 1695650521.33879, 1695650521.309, -0.0297894477844238
E4_Bvp, 1695650521.51067, 1695650521.489, -0.021672248840332
E4_Bvp, 1695650521.68256, 1695650521.669, -0.0135552883148193
E4_Bvp, 1695650521.85444, 1695650521.804, -0.050438404083252
E4_Bvp, 1695650522.02632, 1695650521.984, -0.0423212051391602
E4_Bvp, 1695650522.1982, 1695650522.164, -0.0342042446136475
E4_Bvp, 1695650522.37009, 1695650522.321, -0.0490870475769043
E4_Bvp, 1695650522.54197, 1695650522.501, -0.0409700870513916
E4_Bvp, 1695650522.71385, 1695650522.659, -0.0548532009124756
E4_Bvp, 1695650522.88574, 1695650522.839, -0.0467360019683838
E4_Bvp, 1695650523.05762, 1695650523.019, -0.0386190414428711
E4_Bvp, 1695650523.2295, 1695650523.177, -0.052501916885376
E4_Bvp, 1695650523.40138, 1695650523.356, -0.0453848838806152
E4_Bvp, 1695650523.57327, 1695650523.559, -0.0142679214477539
E4_Bvp, 1695650523.74515, 1695650523.694, -0.0511507987976074
E4_Bvp, 1695650523.91703, 1695650523.874, -0.0430335998535156
E4_Bvp, 1695650524.08892, 1695650524.076, -0.0129168033599854
E4_Bvp, 1695650524.2608, 1695650524.212, -0.0487997531890869
E4_Bvp, 1695650524.43268, 1695650524.391, -0.0416827201843262
E4_Bvp, 1695650524.60457, 1695650524.55, -0.0545656681060791
E4_Bvp, 1695650524.77645, 1695650524.73, -0.0464484691619873
E4_Bvp, 1695650524.94833, 1695650524.909, -0.0393316745758057
E4_Bvp, 1695650525.12021, 1695650525.066, -0.0542144775390625
E4_Bvp, 1695650525.2921, 1695650525.269, -0.0230975151062012
E4_Bvp, 1695650525.46398, 1695650525.427, -0.0369803905487061
E4_Bvp, 1695650525.63586, 1695650525.607, -0.0288631916046143
E4_Bvp, 1695650525.80775, 1695650525.787, -0.0207464694976807
E4_Bvp, 1695650525.97963, 1695650525.944, -0.0356292724609375
E4_Bvp, 1695650526.15151, 1695650526.102, -0.0495123863220215
E4_Bvp, 1695650526.3234, 1695650526.305, -0.0183951854705811
E4_Bvp, 1695650526.49528, 1695650526.44, -0.0552780628204346
E4_Bvp, 1695650526.66716, 1695650526.619, -0.0481612682342529
E4_Bvp, 1695650526.83904, 1695650526.8, -0.0390441417694092
E4_Bvp, 1695650527.01093, 1695650526.957, -0.053926944732666
E4_Bvp, 1695650527.18281, 1695650527.137, -0.0458099842071533
E4_Bvp, 1695650527.35469, 1695650527.317, -0.0376930236816406
E4_Bvp, 1695650527.52658, 1695650527.497, -0.0295760631561279
E4_Bvp, 1695650527.69846, 1695650527.677, -0.0214588642120361
E4_Bvp, 1695650527.87034, 1695650527.856, -0.0143418312072754
E4_Bvp, 1695650528.04222, 1695650527.991, -0.051224946975708
E4_Bvp, 1695650528.21411, 1695650528.171, -0.0431077480316162
E4_Bvp, 1695650528.38599, 1695650528.352, -0.0339908599853516
E4_Bvp, 1695650528.55787, 1695650528.509, -0.0488736629486084
E4_Bvp, 1695650528.72976, 1695650528.689, -0.0407567024230957
E4_Bvp, 1695650528.90164, 1695650528.846, -0.0556397438049316
E4_Bvp, 1695650529.07352, 1695650529.027, -0.0465226173400879
E4_Bvp, 1695650529.24541, 1695650529.206, -0.0394055843353271
E4_Bvp, 1695650529.41729, 1695650529.364, -0.053288459777832
E4_Bvp, 1695650529.58917, 1695650529.544, -0.0451714992523193
E4_Bvp, 1695650529.76105, 1695650529.724, -0.0370545387268066
E4_Bvp, 1695650529.93294, 1695650529.881, -0.0519373416900635
E4_Bvp, 1695650530.10482, 1695650530.062, -0.0428202152252197
E4_Bvp, 1695650530.2767, 1695650530.22, -0.0567033290863037
E4_Bvp, 1695650530.44859, 1695650530.399, -0.049586296081543
E4_Bvp, 1695650530.62047, 1695650530.58, -0.0404694080352783
E4_Bvp, 1695650530.79235, 1695650530.738, -0.0543522834777832
E4_Bvp, 1695650530.96424, 1695650530.917, -0.0472350120544434
E4_Bvp, 1695650531.13612, 1695650531.097, -0.0391182899475098
E4_Bvp, 1695650531.308, 1695650531.254, -0.0540010929107666
E4_Bvp, 1695650531.47988, 1695650531.434, -0.0458841323852539
E4_Bvp, 1695650531.65177, 1695650531.637, -0.0147669315338135
E4_Bvp, 1695650531.82365, 1695650531.794, -0.0296499729156494
E4_Bvp, 1695650531.99553, 1695650531.951, -0.0445330142974854
E4_Bvp, 1695650532.16742, 1695650532.132, -0.0354158878326416
E4_Bvp, 1695650532.3393, 1695650532.312, -0.0272989273071289
E4_Bvp, 1695650532.51118, 1695650532.492, -0.0191817283630371
E4_Bvp, 1695650532.68306, 1695650532.628, -0.0550646781921387
E4_Bvp, 1695650532.85495, 1695650532.829, -0.0259478092193604
E4_Bvp, 1695650533.02683, 1695650532.987, -0.0398306846618652
E4_Bvp, 1695650533.19871, 1695650533.144, -0.0547134876251221
E4_Bvp, 1695650533.3706, 1695650533.324, -0.0465967655181885
E4_Bvp, 1695650533.54248, 1695650533.505, -0.0374794006347656
E4_Bvp, 1695650533.71436, 1695650533.684, -0.030362606048584
E4_Bvp, 1695650533.88625, 1695650533.864, -0.0222454071044922
E4_Bvp, 1695650534.05813, 1695650534.044, -0.0141284465789795
E4_Bvp, 1695650534.23001, 1695650534.18, -0.0500113964080811
E4_Bvp, 1695650534.40189, 1695650534.359, -0.0428943634033203
E4_Bvp, 1695650534.57378, 1695650534.517, -0.0567774772644043
E4_Bvp, 1695650534.74566, 1695650534.697, -0.0486602783203125
E4_Bvp, 1695650534.91754, 1695650534.877, -0.0405430793762207
E4_Bvp, 1695650535.08943, 1695650535.034, -0.0554263591766357
E4_Bvp, 1695650535.26131, 1695650535.237, -0.0243091583251953
E4_Bvp, 1695650535.43319, 1695650535.394, -0.0391919612884521
E4_Bvp, 1695650535.60508, 1695650535.552, -0.0530750751495361
E4_Bvp, 1695650535.77696, 1695650535.732, -0.0449578762054443
E4_Bvp, 1695650535.94884, 1695650535.934, -0.0148410797119141
E4_Bvp, 1695650536.12072, 1695650536.069, -0.0517239570617676
E4_Bvp, 1695650536.29261, 1695650536.249, -0.0436067581176758
E4_Bvp, 1695650536.46449, 1695650536.429, -0.0354900360107422
E4_Bvp, 1695650536.63637, 1695650536.587, -0.0493729114532471
E4_Bvp, 1695650536.80826, 1695650536.767, -0.0412559509277344
E4_Bvp, 1695650536.98014, 1695650536.925, -0.0551388263702393
E4_Bvp, 1695650537.15202, 1695650537.105, -0.0470216274261475
E4_Bvp, 1695650537.3239, 1695650537.285, -0.0389046669006348
E4_Bvp, 1695650537.49579, 1695650537.442, -0.0537877082824707
E4_Bvp, 1695650537.66767, 1695650537.622, -0.045670747756958
E4_Bvp, 1695650537.83955, 1695650537.824, -0.0155537128448486
E4_Bvp, 1695650538.01144, 1695650537.981, -0.0304365158081055
E4_Bvp, 1695650538.18332, 1695650538.139, -0.0443196296691895
E4_Bvp, 1695650538.3552, 1695650538.297, -0.0582025051116943
E4_Bvp, 1695650538.52709, 1695650538.477, -0.0500853061676025
E4_Bvp, 1695650538.69897, 1695650538.657, -0.0419683456420898
E4_Bvp, 1695650538.87085, 1695650538.814, -0.0568513870239258
E4_Bvp, 1695650539.04273, 1695650538.994, -0.0487344264984131
E4_Bvp, 1695650539.21462, 1695650539.175, -0.0396173000335693
E4_Bvp, 1695650539.3865, 1695650539.332, -0.0545001029968262
E4_Bvp, 1695650539.55838, 1695650539.512, -0.0463831424713135
E4_Bvp, 1695650539.73027, 1695650539.692, -0.0382661819458008
E4_Bvp, 1695650539.90215, 1695650539.872, -0.0301492214202881
E4_Bvp, 1695650540.07403, 1695650540.052, -0.0220320224761963
E4_Bvp, 1695650540.24591, 1695650540.209, -0.0369148254394531
E4_Bvp, 1695650540.4178, 1695650540.367, -0.0507979393005371
E4_Bvp, 1695650540.58968, 1695650540.547, -0.0426809787750244
E4_Bvp, 1695650540.76156, 1695650540.704, -0.0575640201568604
E4_Bvp, 1695650540.93345, 1695650540.884, -0.0494468212127686
E4_Bvp, 1695650541.10533, 1695650541.064, -0.0413298606872559
E4_Bvp, 1695650541.27721, 1695650541.222, -0.0552129745483398
E4_Bvp, 1695650541.4491, 1695650541.402, -0.047095775604248
E4_Bvp, 1695650541.62098, 1695650541.582, -0.0389785766601563
E4_Bvp, 1695650541.79286, 1695650541.739, -0.0538616180419922
E4_Bvp, 1695650541.96474, 1695650541.919, -0.0457446575164795
E4_Bvp, 1695650542.13663, 1695650542.122, -0.0146276950836182
E4_Bvp, 1695650542.30851, 1695650542.257, -0.0515105724334717
E4_Bvp, 1695650542.48039, 1695650542.437, -0.0433933734893799
E4_Bvp, 1695650542.65228, 1695650542.594, -0.0582764148712158
E4_Bvp, 1695650542.82416, 1695650542.774, -0.0501594543457031
E4_Bvp, 1695650542.99604, 1695650542.954, -0.0420424938201904
E4_Bvp, 1695650543.16793, 1695650543.113, -0.0549254417419434
E4_Bvp, 1695650543.33981, 1695650543.315, -0.0248081684112549
E4_Bvp, 1695650543.51169, 1695650543.473, -0.0386912822723389
E4_Bvp, 1695650543.68357, 1695650543.652, -0.0315742492675781
E4_Bvp, 1695650543.85546, 1695650543.809, -0.0464572906494141
E4_Bvp, 1695650544.02734, 1695650543.989, -0.0383400917053223
E4_Bvp, 1695650544.19922, 1695650544.192, -0.00722312927246094
E4_Bvp, 1695650544.37111, 1695650544.327, -0.0441062450408936
E4_Bvp, 1695650544.54299, 1695650544.484, -0.0589890480041504
E4_Bvp, 1695650544.71487, 1695650544.664, -0.0508718490600586
E4_Bvp, 1695650544.88675, 1695650544.844, -0.0427548885345459
E4_Bvp, 1695650545.05864, 1695650545.002, -0.0566377639770508
E4_Bvp, 1695650545.23052, 1695650545.182, -0.0485210418701172
E4_Bvp, 1695650545.4024, 1695650545.363, -0.0394039154052734
E4_Bvp, 1695650545.57429, 1695650545.519, -0.0552866458892822
E4_Bvp, 1695650545.74617, 1695650545.699, -0.0471699237823486
E4_Bvp, 1695650545.91805, 1695650545.879, -0.0390527248382568
E4_Bvp, 1695650546.08994, 1695650546.059, -0.0309357643127441
E4_Bvp, 1695650546.26182, 1695650546.217, -0.044818639755249
E4_Bvp, 1695650546.4337, 1695650546.397, -0.0367014408111572
E4_Bvp, 1695650546.60558, 1695650546.555, -0.0505845546722412
E4_Bvp, 1695650546.77747, 1695650546.735, -0.0424675941467285
E4_Bvp, 1695650546.94935, 1695650546.892, -0.0573506355285645
E4_Bvp, 1695650547.12123, 1695650547.072, -0.0492334365844727
E4_Bvp, 1695650547.29312, 1695650547.252, -0.0411162376403809
E4_Bvp, 1695650547.465, 1695650547.409, -0.0559995174407959
E4_Bvp, 1695650547.63688, 1695650547.589, -0.0478823184967041
E4_Bvp, 1695650547.80877, 1695650547.77, -0.0387651920318604
E4_Bvp, 1695650547.98065, 1695650547.949, -0.0316483974456787
E4_Bvp, 1695650548.15253, 1695650548.107, -0.0455310344696045
E4_Bvp, 1695650548.32441, 1695650548.264, -0.0604143142700195
E4_Bvp, 1695650548.4963, 1695650548.444, -0.0522971153259277
E4_Bvp, 1695650548.66818, 1695650548.624, -0.0441799163818359
E4_Bvp, 1695650548.84006, 1695650548.782, -0.0580630302429199
E4_Bvp, 1695650549.01195, 1695650548.984, -0.0279459953308105
E4_Bvp, 1695650549.18383, 1695650549.143, -0.0408291816711426
E4_Bvp, 1695650549.35571, 1695650549.322, -0.0337119102478027
E4_Bvp, 1695650549.52759, 1695650549.48, -0.0475947856903076
E4_Bvp, 1695650549.69948, 1695650549.66, -0.0394778251647949
E4_Bvp, 1695650549.87136, 1695650549.817, -0.0543608665466309
E4_Bvp, 1695650550.04324, 1695650549.997, -0.0462436676025391
E4_Bvp, 1695650550.21513, 1695650550.177, -0.0381267070770264
E4_Bvp, 1695650550.38701, 1695650550.335, -0.0520095825195313
E4_Bvp, 1695650550.55889, 1695650550.514, -0.0448927879333496
E4_Bvp, 1695650550.73078, 1695650550.672, -0.0587756633758545
E4_Bvp, 1695650550.90266, 1695650550.852, -0.0506584644317627
E4_Bvp, 1695650551.07454, 1695650551.032, -0.04254150390625
E4_Bvp, 1695650551.24642, 1695650551.19, -0.0564243793487549
E4_Bvp, 1695650551.41831, 1695650551.37, -0.0483076572418213
E4_Bvp, 1695650551.59019, 1695650551.55, -0.0401904582977295
E4_Bvp, 1695650551.76207, 1695650551.707, -0.0550732612609863
E4_Bvp, 1695650551.93396, 1695650551.887, -0.0469563007354736
E4_Bvp, 1695650552.10584, 1695650552.044, -0.0618393421173096
E4_Bvp, 1695650552.27772, 1695650552.224, -0.0537223815917969
E4_Bvp, 1695650552.44961, 1695650552.427, -0.0226051807403564
E4_Bvp, 1695650552.62149, 1695650552.562, -0.05948805809021
E4_Bvp, 1695650552.79337, 1695650552.742, -0.0513710975646973
E4_Bvp, 1695650552.96525, 1695650552.922, -0.0432541370391846
E4_Bvp, 1695650553.13714, 1695650553.08, -0.0571370124816895
E4_Bvp, 1695650553.30902, 1695650553.259, -0.0500199794769287
E4_Bvp, 1695650553.4809, 1695650553.439, -0.041903018951416
E4_Bvp, 1695650553.65279, 1695650553.597, -0.0557861328125
E4_Bvp, 1695650553.82467, 1695650553.777, -0.0476689338684082
E4_Bvp, 1695650553.99655, 1695650553.957, -0.0395517349243164
E4_Bvp, 1695650554.16843, 1695650554.114, -0.0544347763061523
E4_Bvp, 1695650554.34032, 1695650554.296, -0.0443177223205566
E4_Bvp, 1695650554.5122, 1695650554.474, -0.038200855255127
E4_Bvp, 1695650554.68408, 1695650554.632, -0.0520837306976318
E4_Bvp, 1695650554.85597, 1695650554.812, -0.04396653175354
E4_Bvp, 1695650555.02785, 1695650554.97, -0.057849645614624
E4_Bvp, 1695650555.19973, 1695650555.149, -0.0507326126098633
E4_Bvp, 1695650555.37162, 1695650555.33, -0.0416157245635986
E4_Bvp, 1695650555.5435, 1695650555.488, -0.0554986000061035
E4_Bvp, 1695650555.71538, 1695650555.668, -0.0473814010620117
E4_Bvp, 1695650555.88726, 1695650555.848, -0.039264440536499
E4_Bvp, 1695650556.05915, 1695650556.004, -0.0551474094390869
E4_Bvp, 1695650556.23103, 1695650556.207, -0.0240302085876465
E4_Bvp, 1695650556.40291, 1695650556.342, -0.0609133243560791
E4_Bvp, 1695650556.5748, 1695650556.544, -0.0307962894439697
E4_Bvp, 1695650556.74668, 1695650556.702, -0.0446794033050537
E4_Bvp, 1695650556.91856, 1695650556.86, -0.0585622787475586
E4_Bvp, 1695650557.09045, 1695650557.04, -0.0504450798034668
E4_Bvp, 1695650557.26233, 1695650557.22, -0.0423281192779541
E4_Bvp, 1695650557.43421, 1695650557.383, -0.0512111186981201
E4_Bvp, 1695650557.60609, 1695650557.557, -0.0490942001342773
E4_Bvp, 1695650557.77798, 1695650557.738, -0.0399770736694336
E4_Bvp, 1695650557.94986, 1695650557.894, -0.0558598041534424
E4_Bvp, 1695650558.12174, 1695650558.075, -0.0467429161071777
E4_Bvp, 1695650558.29363, 1695650558.255, -0.0386257171630859
E4_Bvp, 1695650558.46551, 1695650558.435, -0.0305089950561523
E4_Bvp, 1695650558.63739, 1695650558.637, -0.000391721725463867
E4_Bvp, 1695650558.80927, 1695650558.75, -0.0592746734619141
E4_Bvp, 1695650558.98116, 1695650558.929, -0.0521578788757324
E4_Bvp, 1695650559.15304, 1695650559.132, -0.021040678024292
E4_Bvp, 1695650559.32492, 1695650559.267, -0.0579235553741455
E4_Bvp, 1695650559.49681, 1695650559.47, -0.0268065929412842
E4_Bvp, 1695650559.66869, 1695650559.628, -0.0406894683837891
E4_Bvp, 1695650559.84057, 1695650559.785, -0.055572509765625
E4_Bvp, 1695650560.01246, 1695650559.964, -0.0484554767608643
E4_Bvp, 1695650560.18434, 1695650560.122, -0.0623383522033691
E4_Bvp, 1695650560.35622, 1695650560.303, -0.0532214641571045
E4_Bvp, 1695650560.5281, 1695650560.482, -0.0461041927337646
E4_Bvp, 1695650560.69999, 1695650560.64, -0.0599873065948486
E4_Bvp, 1695650560.87187, 1695650560.82, -0.0518703460693359
E4_Bvp, 1695650561.04375, 1695650560.999, -0.0447530746459961
E4_Bvp, 1695650561.21564, 1695650561.157, -0.0586361885070801
E4_Bvp, 1695650561.38752, 1695650561.337, -0.0505192279815674
E4_Bvp, 1695650561.5594, 1695650561.517, -0.0424022674560547
E4_Bvp, 1695650561.73129, 1695650561.676, -0.0552849769592285
E4_Bvp, 1695650561.90317, 1695650561.855, -0.0481679439544678
E4_Bvp, 1695650562.07505, 1695650562.035, -0.0400509834289551
E4_Bvp, 1695650562.24693, 1695650562.192, -0.054934024810791
E4_Bvp, 1695650562.41882, 1695650562.372, -0.0468168258666992
E4_Bvp, 1695650562.5907, 1695650562.552, -0.0386998653411865
E4_Bvp, 1695650562.76258, 1695650562.71, -0.0525827407836914
E4_Bvp, 1695650562.93447, 1695650562.89, -0.0444657802581787
E4_Bvp, 1695650563.10635, 1695650563.047, -0.0593488216400146
E4_Bvp, 1695650563.27823, 1695650563.227, -0.0512316226959229
E4_Bvp, 1695650563.45011, 1695650563.407, -0.0431146621704102
E4_Bvp, 1695650563.622, 1695650563.565, -0.056997537612915
E4_Bvp, 1695650563.79388, 1695650563.745, -0.0488808155059814
E4_Bvp, 1695650563.96576, 1695650563.925, -0.0407636165618896
E4_Bvp, 1695650564.13765, 1695650564.082, -0.0556464195251465
E4_Bvp, 1695650564.30953, 1695650564.285, -0.0245294570922852
E4_Bvp, 1695650564.48141, 1695650564.465, -0.0164124965667725
E4_Bvp, 1695650564.6533, 1695650564.622, -0.0312955379486084
E4_Bvp, 1695650564.82518, 1695650564.802, -0.0231783390045166
E4_Bvp, 1695650564.99706, 1695650564.937, -0.0600612163543701
E4_Bvp, 1695650565.16894, 1695650565.14, -0.0289442539215088
E4_Bvp, 1695650565.34083, 1695650565.297, -0.0438272953033447
E4_Bvp, 1695650565.51271, 1695650565.455, -0.0577101707458496
E4_Bvp, 1695650565.68459, 1695650565.635, -0.0495932102203369
E4_Bvp, 1695650565.85648, 1695650565.815, -0.0414760112762451
E4_Bvp, 1695650566.02836, 1695650565.973, -0.0553591251373291
E4_Bvp, 1695650566.20024, 1695650566.153, -0.0472419261932373
E4_Bvp, 1695650566.37212, 1695650566.31, -0.0621249675750732
E4_Bvp, 1695650566.54401, 1695650566.49, -0.0540080070495605
E4_Bvp, 1695650566.71589, 1695650566.67, -0.0458908081054688
E4_Bvp, 1695650566.88777, 1695650566.827, -0.0607740879058838
E4_Bvp, 1695650567.05966, 1695650567.008, -0.05165696144104
E4_Bvp, 1695650567.23154, 1695650567.21, -0.0215396881103516
E4_Bvp, 1695650567.40342, 1695650567.345, -0.0584228038787842
E4_Bvp, 1695650567.57531, 1695650567.525, -0.0503056049346924
E4_Bvp, 1695650567.74719, 1695650567.705, -0.0421886444091797
E4_Bvp, 1695650567.91907, 1695650567.863, -0.0560717582702637
E4_Bvp, 1695650568.09095, 1695650568.043, -0.0479545593261719
E4_Bvp, 1695650568.26284, 1695650568.223, -0.0398375988006592
E4_Bvp, 1695650568.43472, 1695650568.38, -0.054720401763916
E4_Bvp, 1695650568.6066, 1695650568.56, -0.0466034412384033
E4_Bvp, 1695650568.77849, 1695650568.717, -0.0614864826202393
E4_Bvp, 1695650568.95037, 1695650568.92, -0.0303692817687988
E4_Bvp, 1695650569.12225, 1695650569.077, -0.0452525615692139
E4_Bvp, 1695650569.29414, 1695650569.235, -0.0591354370117188
E4_Bvp, 1695650569.46602, 1695650569.415, -0.051018238067627
E4_Bvp, 1695650569.6379, 1695650569.595, -0.0429012775421143
E4_Bvp, 1695650569.80978, 1695650569.752, -0.0577840805053711
E4_Bvp, 1695650569.98167, 1695650569.932, -0.0496673583984375
E4_Bvp, 1695650570.15355, 1695650570.136, -0.0175502300262451
E4_Bvp, 1695650570.32543, 1695650570.293, -0.032433032989502
E4_Bvp, 1695650570.49732, 1695650570.45, -0.0473160743713379
E4_Bvp, 1695650570.6692, 1695650570.63, -0.0391988754272461
E4_Bvp, 1695650570.84108, 1695650570.81, -0.0310819149017334
E4_Bvp, 1695650571.01296, 1695650570.99, -0.0229649543762207
E4_Bvp, 1695650571.18485, 1695650571.125, -0.0598478317260742
E4_Bvp, 1695650571.35673, 1695650571.305, -0.0517308712005615
E4_Bvp, 1695650571.52861, 1695650571.485, -0.0436139106750488
E4_Bvp, 1695650571.7005, 1695650571.644, -0.0564966201782227
E4_Bvp, 1695650571.87238, 1695650571.822, -0.050379753112793
E4_Bvp, 1695650572.04426, 1695650572.002, -0.0422625541687012
E4_Bvp, 1695650572.21615, 1695650572.16, -0.0561456680297852
E4_Bvp, 1695650572.38803, 1695650572.34, -0.0480287075042725
E4_Bvp, 1695650572.55991, 1695650572.52, -0.0399115085601807
E4_Bvp, 1695650572.73179, 1695650572.678, -0.0537946224212646
E4_Bvp, 1695650572.90368, 1695650572.857, -0.0466773509979248
E4_Bvp, 1695650573.07556, 1695650573.015, -0.0605604648590088
E4_Bvp, 1695650573.24744, 1695650573.195, -0.0524435043334961
E4_Bvp, 1695650573.41933, 1695650573.375, -0.0443263053894043
E4_Bvp, 1695650573.59121, 1695650573.533, -0.0582094192504883
E4_Bvp, 1695650573.76309, 1695650573.712, -0.0510923862457275
E4_Bvp, 1695650573.93498, 1695650573.892, -0.0429751873016357
E4_Bvp, 1695650574.10686, 1695650574.049, -0.0578582286834717
E4_Bvp, 1695650574.27874, 1695650574.231, -0.047741174697876
E4_Bvp, 1695650574.45062, 1695650574.41, -0.0406241416931152
E4_Bvp, 1695650574.62251, 1695650574.567, -0.0555071830749512
E4_Bvp, 1695650574.79439, 1695650574.77, -0.0243899822235107
E4_Bvp, 1695650574.96627, 1695650574.927, -0.0392730236053467
E4_Bvp, 1695650575.13816, 1695650575.13, -0.00815582275390625
E4_Bvp, 1695650575.31004, 1695650575.287, -0.0230391025543213
E4_Bvp, 1695650575.48192, 1695650575.422, -0.0599219799041748
E4_Bvp, 1695650575.6538, 1695650575.625, -0.0288047790527344
E4_Bvp, 1695650575.82569, 1695650575.782, -0.0436878204345703
E4_Bvp, 1695650575.99757, 1695650575.94, -0.0575706958770752
E4_Bvp, 1695650576.16945, 1695650576.121, -0.0484538078308105
E4_Bvp, 1695650576.34134, 1695650576.279, -0.0623366832733154
E4_Bvp, 1695650576.51322, 1695650576.458, -0.0552196502685547
E4_Bvp, 1695650576.6851, 1695650576.638, -0.047102689743042
E4_Bvp, 1695650576.85699, 1695650576.795, -0.0619854927062988
E4_Bvp, 1695650577.02887, 1695650576.975, -0.0538685321807861
E4_Bvp, 1695650577.20075, 1695650577.177, -0.0237514972686768
E4_Bvp, 1695650577.37263, 1695650577.312, -0.0606343746185303
E4_Bvp, 1695650577.54452, 1695650577.492, -0.0525174140930176
E4_Bvp, 1695650577.7164, 1695650577.672, -0.0444004535675049
E4_Bvp, 1695650577.88828, 1695650577.83, -0.0582833290100098
E4_Bvp, 1695650578.06017, 1695650578.01, -0.0501663684844971
E4_Bvp, 1695650578.23205, 1695650578.169, -0.06304931640625
E4_Bvp, 1695650578.40393, 1695650578.348, -0.0559322834014893
E4_Bvp, 1695650578.57582, 1695650578.528, -0.0478150844573975
E4_Bvp, 1695650578.7477, 1695650578.685, -0.0626981258392334
E4_Bvp, 1695650578.91958, 1695650578.865, -0.0545811653137207
E4_Bvp, 1695650579.09146, 1695650579.045, -0.0464639663696289
E4_Bvp, 1695650579.26335, 1695650579.202, -0.0613472461700439
E4_Bvp, 1695650579.43523, 1695650579.382, -0.0532300472259521
E4_Bvp, 1695650579.60711, 1695650579.562, -0.0451128482818604
E4_Bvp, 1695650579.779, 1695650579.72, -0.0589959621429443
E4_Bvp, 1695650579.95088, 1695650579.9, -0.0508787631988525
E4_Bvp, 1695650580.12276, 1695650580.059, -0.0637617111206055
E4_Bvp, 1695650580.29464, 1695650580.237, -0.0576448440551758
E4_Bvp, 1695650580.46653, 1695650580.418, -0.048527717590332
E4_Bvp, 1695650580.63841, 1695650580.575, -0.063410758972168
E4_Bvp, 1695650580.81029, 1695650580.778, -0.0322935581207275
E4_Bvp, 1695650580.98218, 1695650580.935, -0.0471765995025635
E4_Bvp, 1695650581.15406, 1695650581.115, -0.0390596389770508
E4_Bvp, 1695650581.32594, 1695650581.295, -0.030942440032959
E4_Bvp, 1695650581.49783, 1695650581.475, -0.0228257179260254
E4_Bvp, 1695650581.66971, 1695650581.61, -0.0597085952758789
E4_Bvp, 1695650581.84159, 1695650581.79, -0.0515913963317871
E4_Bvp, 1695650582.01347, 1695650581.97, -0.0434744358062744
E4_Bvp, 1695650582.18536, 1695650582.128, -0.0573573112487793
E4_Bvp, 1695650582.35724, 1695650582.307, -0.0502402782440186
E4_Bvp, 1695650582.52912, 1695650582.488, -0.0411233901977539
E4_Bvp, 1695650582.70101, 1695650582.645, -0.0560061931610107
E4_Bvp, 1695650582.87289, 1695650582.825, -0.047889232635498
E4_Bvp, 1695650583.04477, 1695650582.982, -0.0627720355987549
E4_Bvp, 1695650583.21666, 1695650583.185, -0.0316550731658936
E4_Bvp, 1695650583.38854, 1695650583.365, -0.0235381126403809
E4_Bvp, 1695650583.56042, 1695650583.5, -0.0604209899902344
E4_Bvp, 1695650583.7323, 1695650583.68, -0.0523040294647217
E4_Bvp, 1695650583.90419, 1695650583.86, -0.044187068939209
E4_Bvp, 1695650584.07607, 1695650584.017, -0.0590698719024658
E4_Bvp, 1695650584.24795, 1695650584.197, -0.0509529113769531
E4_Bvp, 1695650584.41984, 1695650584.356, -0.0638358592987061
E4_Bvp, 1695650584.59172, 1695650584.536, -0.0557188987731934
E4_Bvp, 1695650584.7636, 1695650584.716, -0.0476016998291016
E4_Bvp, 1695650584.93548, 1695650584.873, -0.0624847412109375
E4_Bvp, 1695650585.10737, 1695650585.053, -0.0543677806854248
E4_Bvp, 1695650585.27925, 1695650585.233, -0.046250581741333
E4_Bvp, 1695650585.45113, 1695650585.412, -0.0391335487365723
E4_Bvp, 1695650585.62302, 1695650585.57, -0.0530166625976563
E4_Bvp, 1695650585.7949, 1695650585.75, -0.0448994636535645
E4_Bvp, 1695650585.96678, 1695650585.907, -0.0597825050354004
E4_Bvp, 1695650586.13867, 1695650586.087, -0.0516655445098877
E4_Bvp, 1695650586.31055, 1695650586.245, -0.0655484199523926
E4_Bvp, 1695650586.48243, 1695650586.425, -0.0574314594268799
E4_Bvp, 1695650586.65431, 1695650586.606, -0.0483143329620361
E4_Bvp, 1695650586.8262, 1695650586.763, -0.0631973743438721
E4_Bvp, 1695650586.99808, 1695650586.943, -0.0550801753997803
E4_Bvp, 1695650587.16996, 1695650587.122, -0.0479631423950195
E4_Bvp, 1695650587.34185, 1695650587.302, -0.0398461818695068
E4_Bvp, 1695650587.51373, 1695650587.483, -0.0307290554046631
E4_Bvp, 1695650587.68561, 1695650587.663, -0.0226120948791504
E4_Bvp, 1695650587.8575, 1695650587.798, -0.0594949722290039
E4_Bvp, 1695650588.02938, 1695650587.977, -0.0523779392242432
E4_Bvp, 1695650588.20126, 1695650588.136, -0.0652611255645752
E4_Bvp, 1695650588.37314, 1695650588.315, -0.0581438541412354
E4_Bvp, 1695650588.54503, 1695650588.495, -0.0500268936157227
E4_Bvp, 1695650588.71691, 1695650588.653, -0.0639097690582275
E4_Bvp, 1695650588.88879, 1695650588.832, -0.0567927360534668
E4_Bvp, 1695650589.06068, 1695650589.012, -0.0486757755279541
E4_Bvp, 1695650589.23256, 1695650589.17, -0.062558650970459
E4_Bvp, 1695650589.40444, 1695650589.35, -0.0544416904449463
E4_Bvp, 1695650589.57632, 1695650589.553, -0.023324728012085
E4_Bvp, 1695650589.74821, 1695650589.688, -0.0602076053619385
E4_Bvp, 1695650589.92009, 1695650589.868, -0.0520906448364258
E4_Bvp, 1695650590.09197, 1695650590.025, -0.0669734477996826
E4_Bvp, 1695650590.26386, 1695650590.205, -0.0588564872741699
E4_Bvp, 1695650590.43574, 1695650590.385, -0.0507395267486572
E4_Bvp, 1695650590.60762, 1695650590.544, -0.0636224746704102
E4_Bvp, 1695650590.77951, 1695650590.723, -0.0565054416656494
E4_Bvp, 1695650590.95139, 1695650590.903, -0.0483882427215576
E4_Bvp, 1695650591.12327, 1695650591.06, -0.0632712841033936
E4_Bvp, 1695650591.29515, 1695650591.263, -0.0321543216705322
E4_Bvp, 1695650591.46704, 1695650591.42, -0.0470371246337891
E4_Bvp, 1695650591.63892, 1695650591.6, -0.0389201641082764
E4_Bvp, 1695650591.8108, 1695650591.758, -0.0528032779693604
E4_Bvp, 1695650591.98269, 1695650591.937, -0.0456860065460205
E4_Bvp, 1695650592.15457, 1695650592.095, -0.0595691204071045
E4_Bvp, 1695650592.32645, 1695650592.276, -0.0504519939422607
E4_Bvp, 1695650592.49833, 1695650592.432, -0.0663349628448486
